ECG,EDA,RSP
-0.015869141,13.19686771,0.778930664
-0.011703491,13.19717288,0.777587891
-0.009765625,13.1970203,0.777435303
-0.013320923,13.19763065,0.777557373
-0.00958252,13.19671512,0.775299072
-0.006622314,13.18679691,0.774932861
-0.006347656,13.18557621,0.774841309
-0.006744385,13.18481327,0.775146484
-0.002258301,13.18496585,0.774932861
-0.005172729,13.18481327,0.772735596
-0.004074097,13.18405033,0.772613525
-0.001907349,13.18267704,0.772491455
0.002471924,13.18511844,0.772460938
0.00352478,13.18527103,0.77255249
0.006866455,13.18389774,0.772827148
0.008834839,13.18328739,0.772613525
0.014251709,13.1843555,0.772491455
0.01335144,13.18389774,0.770263672
0.018814087,13.18405033,0.770263672
0.015518188,13.18405033,0.770172119
0.017120361,13.18542362,0.77041626
0.015533447,13.18633914,0.769989014
0.012695313,13.18466068,0.770050049
0.011856079,13.1843555,0.770019531
0.015045166,13.18466068,0.770324707
0.00920105,13.18511844,0.770202637
0.009613037,13.18450809,0.770141602
0.009887695,13.18511844,0.770080566
0.014816284,13.18466068,0.770294189
0.009674072,13.18420291,0.770019531
0.006729126,13.18405033,0.770111084
0.009094238,13.18389774,0.770629883
0.017669678,13.18557621,0.77243042
0.017883301,13.18527103,0.772888184
0.02230835,13.18511844,0.773529053
0.03137207,13.18588138,0.774932861
0.033874512,13.18466068,0.775726318
0.013656616,13.18466068,0.77734375
0.000488281,13.18405033,0.779449463
-0.008453369,13.18511844,0.780548096
-0.008666992,13.18496585,0.782714844
-0.012771606,13.18618656,0.784851074
-0.016418457,13.18511844,0.787475586
-0.018066406,13.18557621,0.789794922
-0.011123657,13.18511844,0.792419434
-0.04284668,13.18572879,0.795196533
-0.051773071,13.18618656,0.798370361
0.065856934,13.18450809,0.801513672
0.320266724,13.18450809,0.805297852
0.613098145,13.18481327,0.80859375
0.43145752,13.18450809,0.812683105
-0.117843628,13.18572879,0.81640625
-0.387527466,13.18267704,0.820159912
-0.365020752,13.17214847,0.824523926
-0.218338013,13.173064,0.828887939
-0.087554932,13.17214847,0.833740234
-0.012756348,13.17153812,0.838562012
0.010421753,13.17214847,0.843719482
0.021987915,13.17245365,0.848632813
0.023391724,13.17336917,0.853485107
0.034225464,13.17214847,0.858581543
0.034667969,13.17199588,0.863952637
0.036346436,13.17352176,0.869049072
0.035720825,13.17275882,0.874237061
0.044281006,13.173064,0.880157471
0.047424316,13.17275882,0.885742188
0.056350708,13.17169071,0.891784668
0.060348511,13.17245365,0.898010254
0.074066162,13.17214847,0.90411377
0.085601807,13.17169071,0.910522461
0.100219727,13.17260623,0.917633057
0.113052368,13.17214847,0.92401123
0.12739563,13.17214847,0.931243896
0.126022339,13.17230106,0.938232422
0.128295898,13.17245365,0.944976807
0.108535767,13.17275882,0.952178955
0.061630249,13.17184329,0.959564209
-0.009918213,13.17169071,0.966339111
-0.078338623,13.17245365,0.973419189
-0.135070801,13.17169071,0.980255127
-0.168563843,13.17352176,0.986907959
-0.187332153,13.17184329,0.993835449
-0.189163208,13.17291141,1.000823975
-0.187057495,13.17245365,1.007598877
-0.171157837,13.17214847,1.014282227
-0.154281616,13.17275882,1.020965576
-0.137405396,13.17275882,1.027618408
-0.125396729,13.17260623,1.034118652
-0.108108521,13.17352176,1.04107666
-0.096923828,13.17199588,1.047973633
-0.080749512,13.17214847,1.055023193
-0.069778442,13.17245365,1.061889648
-0.056182861,13.16360355,1.068878174
-0.050796509,13.16100955,1.075836182
-0.047836304,13.15978885,1.082885742
-0.040145874,13.15963626,1.090332031
-0.032440186,13.15994144,1.097625732
-0.02961731,13.16009403,1.105010986
-0.026016235,13.16070438,1.112731934
-0.026626587,13.16085697,1.120269775
-0.02130127,13.15948368,1.128265381
-0.020721436,13.15948368,1.135864258
-0.014724731,13.16085697,1.143768311
-0.01675415,13.16009403,1.151580811
-0.014480591,13.1603992,1.159820557
-0.01171875,13.16100955,1.167510986
-0.011001587,13.16146732,1.175811768
-0.011489868,13.16024662,1.184204102
-0.00680542,13.15948368,1.192321777
-0.00440979,13.16024662,1.2003479
0.003173828,13.16009403,1.208770752
0.001602173,13.16009403,1.217498779
0.002624512,13.15933109,1.225830078
-0.000717163,13.16009403,1.234069824
0.002624512,13.15994144,1.242706299
0.002120972,13.15948368,1.251037598
0.002258301,13.16085697,1.259246826
-0.000991821,13.16024662,1.267364502
0.004470825,13.16070438,1.275482178
0.001571655,13.15994144,1.283935547
0.002792358,13.1591785,1.29208374
0.001022339,13.16055179,1.300048828
0.002090454,13.15963626,1.307678223
0.001754761,13.16100955,1.315612793
0.00340271,13.16024662,1.323028564
0.00062561,13.15872074,1.330352783
0.006149292,13.16055179,1.337921143
0.002197266,13.15948368,1.345550537
0.005508423,13.16116214,1.352630615
0.012786865,13.16009403,1.360351563
0.019104004,13.15994144,1.367218018
0.021026611,13.16009403,1.374237061
0.037109375,13.14834476,1.380981445
0.034667969,13.14880252,1.387237549
0.018859863,13.14880252,1.394348145
0.000473022,13.14758182,1.400238037
-0.005111694,13.14849735,1.406066895
-0.008041382,13.14880252,1.411743164
-0.005981445,13.14819217,1.417510986
-0.010604858,13.14773441,1.422729492
-0.009002686,13.14864994,1.428039551
-0.011474609,13.14773441,1.4324646
-0.027160645,13.14880252,1.43649292
-0.061126709,13.14773441,1.440246582
0.015975952,13.1491077,1.443695068
0.239685059,13.14773441,1.447601318
0.549224854,13.14819217,1.449615479
0.574859619,13.14880252,1.451721191
0.036361694,13.14864994,1.453704834
-0.367797852,13.14742923,1.453643799
-0.409683228,13.14773441,1.456420898
-0.30506897,13.14773441,1.456481934
-0.163757324,13.14712406,1.456604004
-0.060379028,13.14803958,1.45602417
-0.004348755,13.14864994,1.45413208
0.010986328,13.14697147,1.453735352
0.017196655,13.147887,1.451629639
0.02482605,13.14773441,1.449554443
0.034683228,13.14819217,1.447143555
0.037124634,13.14834476,1.444335938
0.042755127,13.14834476,1.441070557
0.043518066,13.14803958,1.437866211
0.04838562,13.14834476,1.433410645
0.054855347,13.14697147,1.429382324
0.065292358,13.14697147,1.425018311
0.073471069,13.14819217,1.420654297
0.087783813,13.14819217,1.415771484
0.100891113,13.14895511,1.410675049
0.116531372,13.13827396,1.405609131
0.126144409,13.13461185,1.400177002
0.137466431,13.1364429,1.394836426
0.136398315,13.1364429,1.388946533
0.124465942,13.13537479,1.382781982
0.077819824,13.13629032,1.376312256
0.016235352,13.13537479,1.369750977
-0.055557251,13.13690067,1.362609863
-0.109558105,13.1352222,1.355133057
-0.15196228,13.13583255,1.34753418
-0.173599243,13.13506961,1.339508057
-0.179595947,13.13552738,1.331481934
-0.170013428,13.13583255,1.323608398
-0.159576416,13.13629032,1.315338135
-0.146453857,13.1364429,1.307342529
-0.134521484,13.13598514,1.298309326
-0.117660522,13.13613773,1.289672852
-0.105255127,13.13659549,1.280883789
-0.090393066,13.13674808,1.272247314
-0.080932617,13.13690067,1.263458252
-0.063873291,13.13567996,1.254699707
-0.055236816,13.13537479,1.246246338
-0.046783447,13.13567996,1.237335205
-0.041259766,13.13674808,1.228515625
-0.032913208,13.13598514,1.22076416
-0.028945923,13.13613773,1.21270752
-0.02532959,13.13659549,1.204742432
-0.024368286,13.13506961,1.196624756
-0.022628784,13.13690067,1.189025879
-0.024963379,13.13583255,1.181884766
-0.022506714,13.13613773,1.1746521
-0.025344849,13.13613773,1.168060303
-0.020553589,13.13583255,1.161499023
-0.017745972,13.13552738,1.154998779
-0.016372681,13.13583255,1.148925781
-0.018569946,13.13598514,1.14239502
-0.013656616,13.13613773,1.13659668
-0.017974854,13.13720584,1.130371094
-0.016220093,13.13461185,1.124847412
-0.014312744,13.13552738,1.119293213
-0.009338379,13.13598514,1.113922119
-0.011764526,13.13567996,1.108642578
-0.009246826,13.13583255,1.10357666
-0.00970459,13.1378162,1.098571777
-0.004943848,13.13552738,1.093475342
-0.00592041,13.13598514,1.08883667
-0.002410889,13.13766361,1.08380127
-0.002365112,13.13293338,1.078765869
-0.001144409,13.1239307,1.073852539
-0.004135132,13.12255741,1.068786621
-0.000778198,13.1239307,1.06362915
0.000854492,13.12347293,1.058776855
0.005325317,13.12423587,1.053466797
0.005599976,13.12362552,1.048400879
0.011001587,13.12408329,1.042907715
0.011535645,13.12255741,1.037567139
0.013839722,13.12347293,1.03213501
0.010025024,13.12408329,1.026306152
0.007461548,13.12423587,1.0206604
0.009002686,13.1239307,1.015197754
0.018432617,13.12332035,1.009399414
0.018188477,13.12347293,1.003479004
0.01965332,13.12438846,0.998321533
0.026046753,13.12423587,0.991973877
0.038391113,13.12301517,0.986175537
0.025939941,13.12316776,0.98059082
0.007461548,13.12423587,0.974822998
-0.005447388,13.12484622,0.969512939
-0.010162354,13.12377811,0.96383667
-0.01399231,13.12332035,0.957855225
-0.012359619,13.12377811,0.952484131
-0.012878418,13.1239307,0.947174072
-0.010696411,13.12316776,0.941589355
-0.032592773,13.12301517,0.936248779
-0.062438965,13.1239307,0.930297852
0.005981445,13.1239307,0.925170898
0.218536377,13.12347293,0.920196533
0.525177002,13.12347293,0.914825439
0.57194519,13.12316776,0.909576416
0.055786133,13.12469364,0.904602051
-0.348876953,13.12270999,0.899200439
-0.401657104,13.1239307,0.894378662
-0.26574707,13.12438846,0.890106201
-0.119308472,13.1239307,0.885559082
-0.02571106,13.12438846,0.88104248
0.003860474,13.12484622,0.876708984
0.01751709,13.12423587,0.872406006
0.022613525,13.12362552,0.869018555
0.031768799,13.12270999,0.865081787
0.029907227,13.12347293,0.8621521
0.037033081,13.12316776,0.857971191
0.038284302,13.12286258,0.854919434
0.041824341,13.12301517,0.851989746
0.044143677,13.12408329,0.84866333
0.054290771,13.12332035,0.845855713
0.061264038,13.12438846,0.842803955
0.076339722,13.11401248,0.840667725
0.08581543,13.11187625,0.838378906
0.098205566,13.11065555,0.835998535
0.108413696,13.11218143,0.83404541
0.123504639,13.11172367,0.832122803
0.127639771,13.11233402,0.8309021
0.129013062,13.11202884,0.829162598
0.113128662,13.11141849,0.827209473
0.075363159,13.11202884,0.825805664
0.011108398,13.11096073,0.824127197
-0.058288574,13.1112659,0.821716309
-0.117706299,13.11141849,0.820068359
-0.156143188,13.11141849,0.818145752
-0.177947998,13.11096073,0.815887451
-0.181594849,13.11218143,0.813751221
-0.181091309,13.11111331,0.811401367
-0.168411255,13.11202884,0.809112549
-0.153930664,13.11096073,0.806732178
-0.136505127,13.1112659,0.803955078
-0.123123169,13.11096073,0.80178833
-0.109298706,13.1112659,0.799102783
-0.100585938,13.11218143,0.796783447
-0.085388184,13.11172367,0.794433594
-0.073730469,13.11294437,0.792022705
-0.063659668,13.11187625,0.789642334
-0.054794312,13.11187625,0.78729248
-0.043792725,13.11172367,0.784667969
-0.034423828,13.1112659,0.782592773
-0.028717041,13.11263919,0.780639648
-0.028213501,13.11172367,0.778106689
-0.02305603,13.1100452,0.776184082
-0.022674561,13.11157108,0.77444458
-0.023269653,13.11218143,0.77243042
-0.022491455,13.11157108,0.770050049
-0.016815186,13.11202884,0.768371582
-0.017364502,13.11111331,0.767028809
-0.014953613,13.11111331,0.765167236
-0.017456055,13.11202884,0.76348877
-0.012863159,13.11172367,0.762329102
-0.011260986,13.11096073,0.760162354
-0.006912231,13.11111331,0.759643555
-0.00579834,13.11019779,0.757781982
-0.001327515,13.11096073,0.75680542
-0.002319336,13.1112659,0.755249023
-0.002883911,13.11065555,0.754608154
-0.004257202,13.1112659,0.752868652
-0.003250122,13.11111331,0.752624512
-0.002243042,13.11080814,0.750488281
0.001281738,13.11202884,0.750183105
-0.001541138,13.11096073,0.749725342
0.003097534,13.11294437,0.74786377
0.008865356,13.1112659,0.748077393
0.010864258,13.11141849,0.748199463
0.006378174,13.11157108,0.746551514
0.006729126,13.11141849,0.745513916
0.005264282,13.1112659,0.745361328
0.007217407,13.11172367,0.745513916
0.004959106,13.11096073,0.745513916
0.006958008,13.11218143,0.74508667
0.004974365,13.11080814,0.742828369
0.007217407,13.11035038,0.74307251
0.00553894,13.11187625,0.743011475
0.005813599,13.11080814,0.743133545
0.003005981,13.11157108,0.742950439
0.002471924,13.11065555,0.742858887
-0.001296997,13.11111331,0.742797852
0.00630188,13.11111331,0.74307251
0.009994507,13.11218143,0.743103027
0.016479492,13.11187625,0.742889404
0.019668579,13.11218143,0.742919922
0.028884888,13.11202884,0.742095947
0.015060425,13.11065555,0.740356445
-0.003677368,13.11202884,0.740264893
-0.015838623,13.11172367,0.740478516
-0.013381958,13.11111331,0.740539551
-0.015670776,13.11050296,0.740509033
-0.015075684,13.09921146,0.74029541
-0.015899658,13.1011951,0.740478516
-0.009918213,13.0987537,0.740509033
-0.020568848,13.09936405,0.740264893
-0.050369263,13.10043216,0.74041748
-0.008605957,13.09814334,0.74017334
0.177749634,13.09966922,0.740600586
0.472244263,13.09966922,0.740356445
0.610473633,13.09966922,0.740814209
0.153427124,13.09921146,0.74029541
-0.299804688,13.09951663,0.740356445
-0.406326294,13.10043216,0.740264893
-0.294128418,13.09951663,0.740386963
-0.14390564,13.09982181,0.741821289
-0.035446167,13.09860111,0.742675781
-0.000305176,13.0987537,0.742828369
0.017044067,13.0987537,0.742919922
0.02406311,13.09966922,0.744995117
0.027069092,13.09783817,0.745483398
0.026824951,13.09936405,0.746673584
0.034469604,13.09936405,0.747894287
0.03717041,13.09844852,0.749511719
0.040374756,13.10012699,0.750915527
0.043502808,13.09905887,0.7527771
0.048904419,13.09829593,0.755187988
0.055038452,13.09905887,0.757171631
0.067123413,13.09890628,0.759521484
0.076049805,13.09936405,0.762145996
0.091781616,13.09890628,0.76473999
0.102432251,13.09936405,0.767608643
0.114883423,13.09921146,0.770843506
0.123260498,13.09936405,0.773925781
0.132888794,13.09966922,0.776611328
0.118545532,13.09890628,0.780578613
0.087432861,13.09768558,0.783538818
0.028579712,13.09829593,0.787353516
-0.040298462,13.09844852,0.790802002
-0.106170654,13.09921146,0.794158936
-0.150558472,13.0999744,0.798065186
-0.178543091,13.09951663,0.801696777
-0.18270874,13.09905887,0.805541992
-0.175964355,13.0987537,0.809265137
-0.162261963,13.09844852,0.813110352
-0.154418945,13.0999744,0.817108154
-0.139694214,13.09814334,0.821105957
-0.121505737,13.09860111,0.8253479
-0.101547241,13.09768558,0.829406738
-0.090423584,13.09860111,0.833770752
-0.077255249,13.09921146,0.838409424
-0.065994263,13.09768558,0.843170166
-0.051483154,13.09829593,0.847900391
-0.047302246,13.09936405,0.852905273
-0.038024902,13.09890628,0.857025146
-0.034179688,13.09921146,0.862213135
-0.025756836,13.09982181,0.866882324
-0.023635864,13.09387088,0.871826172
-0.019775391,13.08669925,0.877197266
-0.019714355,13.08700443,0.8828125
-0.012161255,13.08700443,0.888519287
-0.014144897,13.0873096,0.89440918
-0.013198853,13.08578372,0.900390625
-0.013687134,13.08669925,0.906707764
-0.008010864,13.08700443,0.913269043
-0.009613037,13.08685184,0.920013428
-0.00567627,13.08669925,0.926452637
-0.006408691,13.08776737,0.933105469
-0.00201416,13.08715702,0.940063477
-0.006210327,13.08837772,0.947021484
-0.006027222,13.08822513,0.953887939
-0.004440308,13.08654666,0.960784912
-0.003860474,13.08685184,0.967590332
-0.005523682,13.08685184,0.974578857
-0.000900269,13.08700443,0.98147583
0.001159668,13.08639408,0.987854004
0.002624512,13.0873096,0.994537354
0.002120972,13.0873096,1.001281738
0.004882813,13.08624149,1.007629395
0.000137329,13.08654666,1.013916016
0.004135132,13.08715702,1.020263672
0.001586914,13.08776737,1.0262146
0.001647949,13.08776737,1.03237915
0.000167847,13.08654666,1.038208008
0.004882813,13.08715702,1.044067383
0.006881714,13.08807254,1.049926758
0.004089355,13.08685184,1.05581665
0.006088257,13.08761478,1.061309814
0.015304565,13.08685184,1.067138672
0.014785767,13.08746219,1.072631836
0.023483276,13.08746219,1.078491211
0.032150269,13.08654666,1.083587646
0.035308838,13.08669925,1.089630127
0.016937256,13.0873096,1.094970703
-0.001724243,13.08578372,1.100646973
-0.015701294,13.08761478,1.106414795
-0.014022827,13.08715702,1.111938477
-0.017852783,13.08700443,1.117431641
-0.015197754,13.08593631,1.122741699
-0.018753052,13.08746219,1.128814697
-0.019714355,13.08181644,1.134307861
-0.043197632,13.07449222,1.140014648
-0.058868408,13.0747974,1.145965576
0.046936035,13.07464481,1.151641846
0.300292969,13.07494998,1.157836914
0.606216431,13.07433963,1.163665771
0.513076782,13.07449222,1.169464111
-0.063446045,13.07464481,1.175140381
-0.383956909,13.07388187,1.180969238
-0.384124756,13.07418704,1.186767578
-0.264022827,13.07494998,1.193328857
-0.13458252,13.07510257,1.199127197
-0.037689209,13.07433963,1.205352783
0.000610352,13.07388187,1.211425781
0.016677856,13.07418704,1.217651367
0.018127441,13.07464481,1.224029541
0.025039673,13.07449222,1.23034668
0.029205322,13.07449222,1.236968994
0.034683228,13.07342411,1.24307251
0.03414917,13.07433963,1.249816895
0.043457031,13.0747974,1.256622314
0.049026489,13.07418704,1.263275146
0.059387207,13.07372928,1.269897461
0.066757202,13.07403446,1.277282715
0.073257446,13.07464481,1.283996582
0.080215454,13.07311893,1.29119873
0.097412109,13.07449222,1.298614502
0.111740112,13.07418704,1.306152344
0.123794556,13.07342411,1.31362915
0.128662109,13.07113529,1.320892334
0.133132935,13.0621326,1.328063965
0.108932495,13.06259037,1.335357666
0.064208984,13.0621326,1.34262085
-0.002227783,13.06274295,1.349700928
-0.066711426,13.06243778,1.356811523
-0.121673584,13.06243778,1.363922119
-0.154998779,13.06320072,1.370635986
-0.176147461,13.06320072,1.377532959
-0.174453735,13.06289554,1.384124756
-0.168548584,13.06228519,1.390106201
-0.153076172,13.06320072,1.396759033
-0.141906738,13.06243778,1.402740479
-0.12940979,13.05480838,1.408813477
-0.116607666,13.04992557,1.414489746
-0.101806641,13.04962039,1.419921875
-0.087615967,13.0508411,1.425048828
-0.071166992,13.04962039,1.429962158
-0.061950684,13.05023075,1.434997559
-0.04927063,13.05038333,1.43927002
-0.040756226,13.05053592,1.443664551
-0.034820557,13.0508411,1.447631836
-0.035705566,13.05023075,1.45123291
-0.029006958,13.05023075,1.45501709
-0.026275635,13.04901004,1.458068848
-0.022796631,13.05023075,1.460571289
-0.019882202,13.04962039,1.463653564
-0.01612854,13.05129886,1.46572876
-0.017425537,13.05038333,1.467956543
-0.016815186,13.04916263,1.470031738
-0.019378662,13.04977298,1.471069336
-0.014480591,13.05023075,1.473388672
-0.014831543,13.04992557,1.473937988
-0.01449585,13.04946781,1.475158691
-0.016616821,13.04962039,1.47644043
-0.014831543,13.04992557,1.476348877
-0.015991211,13.04992557,1.476409912
-0.009536743,13.05053592,1.476165771
-0.010162354,13.05038333,1.473571777
-0.007354736,13.04977298,1.474060059
-0.006195068,13.04946781,1.471832275
0.000946045,13.04962039,1.470611572
0.000686646,13.05023075,1.468505859
0.006576538,13.05023075,1.466064453
0.001754761,13.04931522,1.463531494
-0.001678467,13.05023075,1.460479736
0.000839233,13.05007816,1.457763672
0.012680054,13.04931522,1.454040527
0.013320923,13.04946781,1.450500488
0.017410278,13.05038333,1.446716309
0.031433105,13.05038333,1.44317627
0.032730103,13.04962039,1.438415527
0.00970459,13.05023075,1.434234619
-0.002288818,13.05053592,1.429534912
-0.011505127,13.05068851,1.424621582
-0.010101318,13.04962039,1.419616699
-0.01008606,13.04595829,1.414459229
-0.007141113,13.03848148,1.409576416
-0.005432129,13.03787113,1.403930664
-0.003204346,13.03848148,1.398376465
-0.03678894,13.03832889,1.392700195
-0.042251587,13.03863407,1.386413574
0.10055542,13.03832889,1.381011963
0.381546021,13.0381763,1.37487793
0.647109985,13.03802371,1.368347168
0.394714355,13.0381763,1.362487793
-0.175888062,13.03832889,1.355682373
-0.40826416,13.03878665,1.34954834
-0.365356445,13.03802371,1.343109131
-0.220947266,13.03924442,1.336975098
-0.094573975,13.03924442,1.330780029
-0.010375977,13.03848148,1.32409668
0.015869141,13.03863407,1.318389893
0.026947021,13.03771854,1.312194824
0.031265259,13.0381763,1.30557251
0.035858154,13.03848148,1.299224854
0.038772583,13.03802371,1.293121338
0.042648315,13.03802371,1.286865234
0.043228149,13.03954959,1.280212402
0.047286987,13.03893924,1.274078369
0.053649902,13.03893924,1.268035889
0.066436768,13.03878665,1.262268066
0.073638916,13.03710819,1.256134033
0.084350586,13.03802371,1.250305176
0.091415405,13.03832889,1.244812012
0.103866577,13.03954959,1.238555908
0.110748291,13.03832889,1.233062744
0.120056152,13.03924442,1.227294922
0.121170044,13.03924442,1.221954346
0.117263794,13.03802371,1.2159729
0.084365845,13.03832889,1.209991455
0.027130127,13.03893924,1.204162598
-0.040939331,13.03924442,1.19821167
-0.101531982,13.03832889,1.192657471
-0.150146484,13.03848148,1.186798096
-0.173171997,13.03848148,1.180877686
-0.185028076,13.03863407,1.175079346
-0.177886963,13.03893924,1.168884277
-0.165710449,13.0381763,1.163421631
-0.150115967,13.03726078,1.157653809
-0.13861084,13.02978397,1.151641846
-0.123626709,13.02505374,1.145904541
-0.111251831,13.02657962,1.140655518
-0.095001221,13.0256641,1.134643555
-0.083618164,13.0256641,1.129394531
-0.070129395,13.02734256,1.124237061
-0.059814453,13.0256641,1.118835449
-0.046035767,13.02520633,1.113647461
-0.042419434,13.02551151,1.108764648
-0.029937744,13.02612186,1.104034424
-0.030075073,13.02612186,1.099639893
-0.025253296,13.02413822,1.094970703
-0.022888184,13.02551151,1.090942383
-0.017623901,13.02413822,1.086730957
-0.022979736,13.02612186,1.082763672
-0.019714355,13.0256641,1.079071045
-0.019714355,13.02535892,1.075592041
-0.015716553,13.02520633,1.071899414
-0.015777588,13.02551151,1.068908691
-0.011459351,13.02551151,1.066009521
-0.011764526,13.02657962,1.063110352
-0.010681152,13.02612186,1.060302734
-0.013442993,13.02551151,1.057952881
-0.009017944,13.02474857,1.055389404
-0.009994507,13.02551151,1.05291748
-0.009918213,13.02581668,1.050598145
-0.009994507,13.02596927,1.048553467
-0.008087158,13.02642704,1.046813965
-0.009063721,13.02398563,1.045196533
-0.006210327,13.02490116,1.04309082
-0.006912231,13.02551151,1.041046143
-0.001861572,13.02612186,1.039550781
0.000183105,13.02642704,1.038482666
0.006515503,13.02581668,1.035919189
0.004837036,13.02581668,1.034912109
0.007858276,13.02581668,1.03338623
0.008026123,13.02642704,1.032073975
0.004364014,13.02673221,1.030761719
0.003692627,13.0256641,1.029449463
0.014724731,13.02535892,1.028442383
0.015350342,13.02535892,1.026702881
0.01890564,13.02596927,1.025909424
0.024124146,13.02581668,1.023651123
0.03666687,13.02596927,1.022338867
0.022277832,13.0256641,1.020904541
0.003646851,13.02459598,1.018859863
-0.007873535,13.0256641,1.017089844
-0.012298584,13.0256641,1.015869141
-0.013809204,13.02642704,1.013793945
-0.008361816,13.0256641,1.011627197
-0.010543823,13.02581668,1.009674072
-0.009078979,13.02520633,1.007629395
-0.034301758,13.0256641,1.005615234
-0.050537109,13.02535892,1.003234863
0.048110962,13.02520633,1.000610352
0.286010742,13.02596927,0.997528076
0.582763672,13.02520633,0.994842529
0.497909546,13.02535892,0.99130249
-0.057891846,13.02505374,0.987823486
-0.384246826,13.02520633,0.983642578
-0.382415771,13.02520633,0.980133057
-0.230941772,13.02520633,0.975708008
-0.088424683,13.02535892,0.971343994
-0.008880615,13.02490116,0.96673584
0.010879517,13.02490116,0.961669922
0.023254395,13.02657962,0.956756592
0.024780273,13.0256641,0.951538086
0.028747559,13.02642704,0.946594238
0.028427124,13.02520633,0.941009521
0.035293579,13.02581668,0.93560791
0.037826538,13.02581668,0.930084229
0.041809082,13.02596927,0.924957275
0.044067383,13.02612186,0.919219971
0.054824829,13.0268848,0.913391113
0.06312561,13.02581668,0.908111572
0.073318481,13.0256641,0.902954102
0.084411621,13.0242908,0.89743042
0.101547241,13.02535892,0.892150879
0.112365723,13.02749515,0.887084961
0.125320435,13.02673221,0.881713867
0.128005981,13.02581668,0.876556396
0.128601074,13.02642704,0.871704102
0.107116699,13.02596927,0.866699219
0.064147949,13.02657962,0.861755371
-0.006393433,13.02612186,0.856750488
-0.07359314,13.02490116,0.851654053
-0.125167847,13.0256641,0.84664917
-0.158920288,13.02581668,0.841003418
-0.180999756,13.02596927,0.835998535
-0.177719116,13.02581668,0.830963135
-0.167602539,13.0256641,0.825378418
-0.155212402,13.02596927,0.820220947
-0.146438599,13.0256641,0.814575195
-0.127563477,13.02551151,0.808868408
-0.110916138,13.02535892,0.80267334
-0.100540161,13.02535892,0.796630859
-0.090621948,13.02581668,0.790588379
-0.076080322,13.02596927,0.784332275
-0.069137573,13.02520633,0.777679443
-0.063049316,13.02581668,0.771575928
-0.058441162,13.02551151,0.765136719
-0.04776001,13.02505374,0.758300781
-0.041168213,13.02627445,0.752258301
-0.036758423,13.02535892,0.74597168
-0.036392212,13.02642704,0.739990234
-0.031661987,13.02535892,0.733795166
-0.028915405,13.02642704,0.727752686
-0.025177002,13.02535892,0.722015381
-0.022827148,13.0256641,0.716583252
-0.017440796,13.02627445,0.711273193
-0.018173218,13.02581668,0.7059021
-0.014907837,13.02642704,0.700500488
-0.013793945,13.02612186,0.69543457
-0.01109314,13.02642704,0.690093994
-0.013641357,13.02535892,0.68548584
-0.012466431,13.0256641,0.680786133
-0.010925293,13.02535892,0.676116943
-0.006530762,13.02581668,0.671783447
-0.007751465,13.02627445,0.667572021
-0.005493164,13.0256641,0.663391113
-0.003707886,13.02642704,0.660003662
-0.001693726,13.02627445,0.655914307
-0.002624512,13.02596927,0.65222168
0.002258301,13.02642704,0.648773193
0.004226685,13.02642704,0.645629883
0.006546021,13.02505374,0.642303467
0.002334595,13.02551151,0.639251709
0.006698608,13.02581668,0.636260986
0.006759644,13.02627445,0.633880615
0.012069702,13.02596927,0.63092041
0.013916016,13.02551151,0.62878418
0.01651001,13.02642704,0.626525879
0.016540527,13.02596927,0.624298096
0.011672974,13.02581668,0.6222229
0.004943848,13.0256641,0.619750977
0.010955811,13.02596927,0.61831665
0.018264771,13.02474857,0.616668701
0.023071289,13.02505374,0.61505127
0.027206421,13.02657962,0.613006592
0.037734985,13.02520633,0.612365723
0.028671265,13.02612186,0.61026001
0.009750366,13.02535892,0.609588623
-0.00239563,13.02551151,0.607696533
-0.004882813,13.02612186,0.607696533
-0.011322021,13.02459598,0.605102539
-0.011383057,13.02627445,0.605224609
-0.014785767,13.02459598,0.604278564
-0.012557983,13.02490116,0.60269165
-0.021575928,13.02551151,0.602905273
-0.050506592,13.02505374,0.602416992
-0.022354126,13.02535892,0.600219727
0.152145386,13.02505374,0.600494385
0.444061279,13.02535892,0.600463867
0.618057251,13.0256641,0.599639893
0.198898315,13.02581668,0.597961426
-0.274978638,13.02551151,0.597686768
-0.405059814,13.02535892,0.597717285
-0.299377441,13.02444339,0.59753418
-0.143493652,13.02612186,0.597229004
-0.033889771,13.02505374,0.595092773
0.005752563,13.02490116,0.595184326
0.022399902,13.0256641,0.595306396
0.02331543,13.02535892,0.595367432
0.030319214,13.02459598,0.595214844
0.033676147,13.02612186,0.594787598
0.039031982,13.02459598,0.593139648
0.039169312,13.0256641,0.592559814
0.044082642,13.02551151,0.59286499
0.048721313,13.02505374,0.592712402
0.056991577,13.02444339,0.592803955
0.058456421,13.02505374,0.593017578
0.070053101,13.02459598,0.591705322
0.082473755,13.02535892,0.590637207
0.097488403,13.02505374,0.59072876
0.105224609,13.02627445,0.590393066
0.114761353,13.02474857,0.590698242
0.122497559,13.0256641,0.590423584
0.125274658,13.02596927,0.590484619
0.111129761,13.0242908,0.590545654
0.082229614,13.02596927,0.590454102
0.023864746,13.02383304,0.588256836
-0.044662476,13.02520633,0.587738037
-0.108764648,13.02520633,0.587921143
-0.152664185,13.02444339,0.58782959
-0.178192139,13.02520633,0.587982178
-0.188568115,13.02398563,0.58782959
-0.191268921,13.02474857,0.585235596
-0.175567627,13.02520633,0.585021973
-0.159835815,13.02505374,0.585662842
-0.142852783,13.02581668,0.585479736
-0.131484985,13.0256641,0.585205078
-0.115890503,13.02581668,0.585327148
-0.100402832,13.02474857,0.585510254
-0.087646484,13.02612186,0.586914063
-0.074920654,13.02581668,0.587921143
-0.061279297,13.02520633,0.5887146
-0.057510376,13.01406742,0.590301514
-0.048171997,13.01360965,0.592407227
-0.041305542,13.01345706,0.594573975
-0.033157349,13.0129993,0.597381592
-0.03086853,13.01391483,0.600799561
-0.023178101,13.01360965,0.604370117
-0.023452759,13.01284671,0.608764648
-0.018814087,13.01452518,0.61315918
-0.01890564,13.01391483,0.618286133
-0.015335083,13.01360965,0.623931885
-0.015167236,13.01269413,0.629760742
-0.013397217,13.01315189,0.635986328
-0.016326904,13.01284671,0.642547607
-0.012771606,13.01284671,0.649230957
-0.013671875,13.01269413,0.656433105
-0.00881958,13.01284671,0.664154053
-0.008499146,13.01360965,0.671844482
-0.003860474,13.01284671,0.67956543
-4.58E-05,13.01254154,0.687652588
0.004714966,13.01315189,0.695892334
0.002227783,13.01376224,0.703918457
0.003921509,13.01376224,0.712646484
0.003555298,13.01391483,0.721191406
0.006210327,13.01284671,0.729553223
0.002532959,13.01360965,0.738098145
0.00050354,13.01330448,0.746673584
-0.001098633,13.01345706,0.754882813
0.003189087,13.01284671,0.763824463
-0.001449585,13.0129993,0.772644043
-0.001525879,13.00384403,0.781097412
-0.001525879,13.00033451,0.78994751
0.003997803,13.00018192,0.798431396
0.005554199,13.00063968,0.807189941
0.006942749,13.00033451,0.815490723
0.004333496,13.00048709,0.824310303
0.009552002,13.00125003,0.832550049
0.008895874,13.00002933,0.840820313
0.009536743,13.00079227,0.848693848
0.00630188,13.00002933,0.857421875
0.008270264,13.00186038,0.865203857
0.012985229,13.00155521,0.872802734
0.018814087,12.99987674,0.880645752
0.018829346,13.00079227,0.888549805
0.028533936,13.00079227,0.895843506
0.035400391,13.00048709,0.90322876
0.025909424,13.00186038,0.910522461
0.002456665,13.00155521,0.91784668
-0.006637573,13.00109745,0.924682617
-0.011550903,13.00048709,0.931884766
-0.011291504,13.00063968,0.938751221
-0.012268066,13.00033451,0.94631958
-0.007354736,13.00033451,0.95300293
-0.008773804,13.00094486,0.960632324
-0.017745972,13.00079227,0.967712402
-0.050140381,13.00094486,0.975036621
-0.001907349,13.00125003,0.982513428
0.193023682,13.00079227,0.989898682
0.508056641,13.0017078,0.997558594
0.630310059,13.0017078,1.005279541
0.140670776,13.00033451,1.01260376
-0.311584473,13.00063968,1.020141602
-0.394363403,13.00079227,1.02835083
-0.30430603,13.00033451,1.036651611
-0.166412354,12.98705936,1.04486084
-0.060623169,12.98858524,1.054168701
-0.00012207,12.98843265,1.063262939
0.02053833,12.98934818,1.072662354
0.029586792,12.98934818,1.082427979
0.032867432,12.98812747,1.09286499
0.036682129,12.98751712,1.102813721
0.037582397,12.98812747,1.113128662
0.043151855,12.989043,1.12411499
0.045593262,12.98919559,1.134552002
0.051605225,12.98873783,1.145446777
0.054229736,12.98812747,1.156707764
0.065872192,12.98934818,1.167785645
0.076309204,12.98858524,1.178955078
0.081451416,12.9878223,1.190795898
0.088058472,12.98934818,1.20223999
0.105072021,12.98950077,1.213775635
0.118911743,12.98843265,1.225311279
0.128662109,12.98873783,1.236968994
0.125579834,12.98934818,1.248779297
0.119491577,12.98828006,1.259918213
0.085220337,12.98873783,1.271759033
0.029006958,12.98965335,1.282226563
-0.040298462,12.98828006,1.293273926
-0.100738525,12.98828006,1.304290771
-0.15007019,12.98812747,1.31451416
-0.172988892,12.989043,1.324798584
-0.181289673,12.989043,1.334350586
-0.177093506,12.98828006,1.344421387
-0.170196533,12.9878223,1.354156494
-0.155258179,12.98736454,1.363647461
-0.141601563,12.98049808,1.372406006
-0.121520996,12.97653079,1.381286621
-0.111557007,12.97668338,1.390106201
-0.096588135,12.9751575,1.39831543
-0.084152222,12.97607303,1.406066895
-0.070922852,12.97683597,1.413665771
-0.064025879,12.97500492,1.420928955
-0.051895142,12.97576786,1.428375244
-0.048080444,12.97714115,1.434753418
-0.040039063,12.97683597,1.441375732
-0.036224365,12.97576786,1.44708252
-0.027404785,12.97653079,1.452606201
-0.025939941,12.97698856,1.457977295
-0.021682739,12.97607303,1.46282959
-0.024963379,12.97592044,1.467559814
-0.019042969,12.97683597,1.471343994
-0.022445679,12.97607303,1.475097656
-0.021957397,12.97592044,1.478088379
-0.020050049,12.97500492,1.481262207
-0.013565063,12.97622562,1.483581543
-0.016723633,12.97607303,1.485748291
-0.013198853,12.97592044,1.487121582
-0.01121521,12.97592044,1.488464355
-0.009552002,12.97622562,1.488555908
-0.006790161,12.97607303,1.488494873
-0.002044678,12.97698856,1.488494873
-0.005279541,12.97653079,1.488739014
-0.00328064,12.97653079,1.488708496
-0.005081177,12.97729373,1.48638916
-0.003189087,12.97607303,1.485198975
-0.00402832,12.97637821,1.482788086
0.000274658,12.97653079,1.480194092
0.00302124,12.97668338,1.477325439
0.007385254,12.97683597,1.474182129
-0.001861572,12.97531009,1.470123291
0.003311157,12.97439456,1.466766357
0.007965088,12.96371341,1.462371826
0.013168335,12.96478153,1.458190918
0.012786865,12.96462894,1.453186035
0.026168823,12.96417118,1.44821167
0.032485962,12.96478153,1.442962646
0.021820068,12.96417118,1.437347412
-0.000335693,12.96371341,1.432006836
-0.008163452,12.963866,1.426086426
-0.01133728,12.96523929,1.419891357
-0.010650635,12.96356082,1.414123535
-0.013244629,12.96401859,1.407897949
-0.009811401,12.963866,1.401397705
-0.00819397,12.96325565,1.394866943
-0.019424438,12.96417118,1.388305664
-0.05317688,12.96493412,1.381622314
-0.006011963,12.96478153,1.37487793
0.192062378,12.96401859,1.368286133
0.492950439,12.96417118,1.361358643
0.627624512,12.96493412,1.354431152
0.164855957,12.96432376,1.347564697
-0.311523438,12.96432376,1.340637207
-0.407119751,12.96462894,1.333618164
-0.308166504,12.96554447,1.327087402
-0.159713745,12.96493412,1.320709229
-0.047714233,12.96401859,1.314147949
0.011322021,12.96493412,1.3074646
0.027786255,12.96462894,1.301147461
0.034423828,12.963866,1.294067383
0.034500122,12.96462894,1.287384033
0.040252686,12.96417118,1.280853271
0.039581299,12.96310306,1.274230957
0.04133606,12.96371341,1.267486572
0.042221069,12.96462894,1.260620117
0.048660278,12.96356082,1.25390625
0.054962158,12.96371341,1.247589111
0.0650177,12.96340824,1.241027832
0.071426392,12.96478153,1.234832764
0.08203125,12.96478153,1.228607178
0.090637207,12.96401859,1.22265625
0.103057861,12.96478153,1.216522217
0.113967896,12.96325565,1.210662842
0.12272644,12.95638919,1.205230713
0.121505737,12.95318485,1.199554443
0.10836792,12.95226932,1.194152832
0.066116333,12.95318485,1.188720703
0.006988525,12.9525745,1.182952881
-0.059799194,12.95181156,1.17767334
-0.115615845,12.95196414,1.172424316
-0.157684326,12.95226932,1.167022705
-0.173873901,12.95226932,1.161865234
-0.179367065,12.95059085,1.156921387
-0.169372559,12.95150638,1.151824951
-0.160018921,12.95303226,1.147033691
-0.145965576,12.95226932,1.14251709
-0.131973267,12.9525745,1.137481689
-0.116531372,12.95226932,1.13293457
-0.103134155,12.95226932,1.128814697
-0.089996338,12.95104862,1.124450684
-0.079071045,12.95135379,1.120422363
-0.064712524,12.95150638,1.11605835
-0.058349609,12.95181156,1.112579346
-0.049163818,12.95226932,1.108734131
-0.04460144,12.95196414,1.105407715
-0.035339355,12.95150638,1.1015625
-0.033935547,12.95120121,1.098693848
-0.028488159,12.95150638,1.095855713
-0.026824951,12.95791507,1.092559814
-0.020477295,12.96417118,1.089660645
-0.020751953,12.96310306,1.087005615
-0.019393921,12.96447635,1.084655762
-0.018081665,12.96478153,1.082061768
-0.017654419,12.96432376,1.079772949
-0.018783569,12.96432376,1.077697754
-0.015304565,12.963866,1.075164795
-0.014556885,12.96356082,1.073181152
-0.01210022,12.96325565,1.07119751
-0.011962891,12.96432376,1.069763184
-0.007949829,12.963866,1.067840576
-0.009979248,12.96310306,1.065307617
-0.008087158,12.96356082,1.063751221
-0.006332397,12.97134281,1.062316895
-0.002578735,12.97607303,1.060272217
-0.005432129,12.97622562,1.058410645
-0.003890991,12.97698856,1.056732178
-0.001190186,12.97683597,1.055084229
0.001678467,12.97561527,1.053131104
-0.001525879,12.97607303,1.051239014
0.001556396,12.97653079,1.049285889
0.004257202,12.97622562,1.047088623
0.009063721,12.98293949,1.044891357
0.009109497,12.98751712,1.042663574
0.009140015,12.9878223,1.040496826
0.008651733,12.98828006,1.03817749
0.011383057,12.989043,1.036071777
0.009933472,12.98797489,1.033233643
0.010482788,12.98858524,1.030883789
0.006454468,12.9991138,1.028137207
0.010543823,13.00094486,1.025482178
0.012176514,13.00048709,1.022644043
0.009552002,13.00063968,1.019317627
-0.000411987,13.00186038,1.015930176
0.005966187,13.00201297,1.012359619
0.014022827,13.01238895,1.008300781
0.015777588,13.01284671,1.004547119
0.016586304,13.0129993,0.999847412
0.0284729,13.01406742,0.995452881
0.032272339,13.01254154,0.990142822
0.020736694,13.01910282,0.985015869
0.000732422,13.02551151,0.979644775
-0.005462646,13.0256641,0.973815918
-0.010345459,13.02505374,0.967681885
-0.013061523,13.02490116,0.962127686
-0.013946533,13.02657962,0.956054688
-0.009933472,13.03802371,0.949768066
-0.014251709,13.03893924,0.943695068
-0.037094116,13.0381763,0.936981201
-0.066070557,13.03771854,0.931213379
0.022476196,13.04427982,0.925140381
0.24256897,13.05007816,0.91885376
0.552612305,13.04885746,0.912689209
0.531494141,13.04977298,0.906494141
0.002731323,13.06152225,0.900421143
-0.359680176,13.06289554,0.894256592
-0.386901855,13.06289554,0.888214111
-0.24671936,13.06838871,0.882995605
-0.099273682,13.07433963,0.876983643
-0.01864624,13.07403446,0.871551514
0.007278442,13.07372928,0.866851807
0.014572144,13.08242679,0.861694336
0.021789551,13.08593631,0.856567383
0.025024414,13.08639408,0.851837158
0.029830933,13.08700443,0.847290039
0.027267456,13.08975101,0.84274292
0.033203125,13.09860111,0.837677002
0.036911011,13.0987537,0.833618164
0.048629761,13.09829593,0.829742432
0.057922363,13.09860111,0.825500488
0.065994263,13.10150028,0.822052002
0.073287964,13.11080814,0.81829834
0.087158203,13.11172367,0.815307617
0.098861694,13.11187625,0.811401367
0.111221313,13.1112659,0.80847168
0.118774414,13.11172367,0.805480957
0.128936768,13.11569095,0.802764893
0.129425049,13.12438846,0.800140381
0.112579346,13.12362552,0.796966553
0.069442749,13.12377811,0.7940979
0.007492065,13.12408329,0.79119873
-0.067932129,13.12286258,0.788269043
-0.121032715,13.12438846,0.784301758
-0.160522461,13.1352222,0.780212402
-0.180618286,13.13552738,0.775390625
-0.188171387,13.1352222,0.770233154
-0.1822052,13.13537479,0.764343262
-0.168930054,13.13583255,0.75769043
-0.151763916,13.1352222,0.750915527
-0.140518188,13.13934207,0.743347168
-0.119979858,13.14849735,0.735687256
-0.107757568,13.14941288,0.727905273
-0.09387207,13.147887,0.720123291
-0.08114624,13.147887,0.711853027
-0.069290161,13.14834476,0.703979492
-0.064468384,13.14712406,0.695281982
-0.052734375,13.14849735,0.687255859
-0.050216675,13.1529224,0.679077148
-0.041213989,13.15994144,0.670501709
-0.036148071,13.16009403,0.662506104
-0.029052734,13.16055179,0.654815674
-0.028152466,13.15933109,0.646850586
-0.025360107,13.15994144,0.639099121
-0.025161743,13.15963626,0.631744385
-0.022003174,13.15994144,0.624359131
-0.021682739,13.16009403,0.6171875
-0.018753052,13.16024662,0.61026001
-0.023254395,13.16909671,0.604003906
-0.018920898,13.17336917,0.597442627
-0.019348145,13.17230106,0.591217041
-0.01600647,13.17230106,0.585144043
-0.016204834,13.17245365,0.579772949
-0.009963989,13.17336917,0.57409668
-0.008377075,13.17199588,0.568695068
-0.005950928,13.17352176,0.56427002
-0.002883911,13.17169071,0.559326172
0.001785278,13.17275882,0.554870605
0.001998901,13.17245365,0.550842285
0.00352478,13.17260623,0.547027588
0.00289917,13.17153812,0.542999268
0.005584717,13.17230106,0.539459229
0.002593994,13.17275882,0.536193848
0.003341675,13.17184329,0.532714844
0.004089355,13.18145633,0.530303955
0.004882813,13.18527103,0.527587891
0.005889893,13.18405033,0.524810791
0.011108398,13.1843555,0.522674561
0.006698608,13.18466068,0.520751953
0.008026123,13.18481327,0.519073486
0.006500244,13.18603397,0.516601563
0.007659912,13.18481327,0.515258789
0.004425049,13.18542362,0.514129639
0.005767822,13.18588138,0.512237549
0.003662109,13.18405033,0.511810303
0.004257202,13.18511844,0.509887695
0.004348755,13.18511844,0.509216309
0.006698608,13.1843555,0.509307861
0.003921509,13.18588138,0.507049561
0.006698608,13.18557621,0.506622314
-0.000244141,13.18466068,0.506652832
0.004638672,13.18481327,0.506744385
0.012542725,13.18450809,0.50680542
0.014648438,13.18466068,0.506866455
0.016403198,13.18496585,0.506744385
0.029541016,13.18557621,0.507049561
0.031723022,13.18603397,0.506896973
0.016067505,13.18450809,0.50668335
-0.003082275,13.1843555,0.506835938
-0.010513306,13.18481327,0.506561279
-0.014587402,13.1843555,0.507049561
-0.014358521,13.18481327,0.50692749
-0.015762329,13.18572879,0.506744385
-0.012069702,13.18481327,0.506622314
-0.013214111,13.18466068,0.507110596
-0.02961731,13.18542362,0.509368896
-0.061126709,13.18527103,0.509246826
0.014251709,13.18405033,0.509277344
0.228515625,13.18466068,0.511230469
0.53767395,13.18069339,0.511779785
0.556427002,13.17260623,0.513397217
0.040512085,13.17260623,0.514190674
-0.345153809,13.17184329,0.516235352
-0.387008667,13.17169071,0.517547607
-0.254425049,13.17108036,0.519805908
-0.109130859,13.17214847,0.522186279
-0.024276733,13.17169071,0.524536133
0.004257202,13.17184329,0.527191162
0.012649536,13.17230106,0.530181885
0.024627686,13.17153812,0.532989502
0.028411865,13.17245365,0.536407471
0.033538818,13.17214847,0.54019165
0.032150269,13.17230106,0.544189453
0.03553772,13.17291141,0.548034668
0.037506104,13.17230106,0.552368164
0.043731689,13.17245365,0.556854248
0.051330566,13.17230106,0.562103271
0.063796997,13.17214847,0.567199707
0.072906494,13.17245365,0.572540283
0.082397461,13.17291141,0.578277588
0.090499878,13.17214847,0.583770752
0.102340698,13.17031742,0.590209961
0.112701416,13.17214847,0.596160889
0.12310791,13.16787601,0.602783203
0.124786377,13.1603992,0.609191895
0.110366821,13.16055179,0.615325928
0.075119019,13.16116214,0.622070313
0.017669678,13.15994144,0.628417969
-0.055648804,13.16009403,0.634918213
-0.116226196,13.15978885,0.641601563
-0.157897949,13.15963626,0.648071289
-0.180114746,13.16085697,0.654724121
-0.186950684,13.16070438,0.661376953
-0.177444458,13.15978885,0.667785645
-0.162353516,13.15994144,0.674438477
-0.146575928,13.15994144,0.681243896
-0.136230469,13.16009403,0.687896729
-0.121002197,13.16009403,0.694763184
-0.108856201,13.14803958,0.702484131
-0.090179443,13.14864994,0.709014893
-0.081253052,13.14773441,0.716461182
-0.069152832,13.14864994,0.7237854
-0.059295654,13.14819217,0.731231689
-0.052490234,13.147887,0.738983154
-0.044021606,13.14712406,0.746429443
-0.036254883,13.14727664,0.753723145
-0.033325195,13.14773441,0.761444092
-0.024871826,13.14773441,0.769104004
-0.025360107,13.14361454,0.776947021
-0.019577026,13.13567996,0.784240723
-0.020828247,13.13629032,0.792114258
-0.016387939,13.13537479,0.799255371
-0.016159058,13.13537479,0.806915283
-0.011413574,13.13491703,0.814697266
-0.015319824,13.13598514,0.821990967
-0.010772705,13.13659549,0.829803467
-0.01260376,13.13613773,0.837280273
-0.011993408,13.13583255,0.845184326
-0.011154175,13.13583255,0.852905273
-0.008453369,13.13613773,0.860443115
-0.010818481,13.12530399,0.867828369
-0.00592041,13.12301517,0.87512207
-0.005264282,13.12377811,0.88269043
-0.00730896,13.12301517,0.889770508
-0.005996704,13.12408329,0.897125244
-0.00201416,13.12423587,0.904724121
-0.002471924,13.12377811,0.911499023
0.001495361,13.12301517,0.918212891
0.00227356,13.12408329,0.925354004
0.00668335,13.12347293,0.932067871
0.008102417,13.12362552,0.938751221
0.00630188,13.12408329,0.945098877
0.004089355,13.11569095,0.951904297
0.006378174,13.11035038,0.958099365
0.004074097,13.11157108,0.964691162
0.004013062,13.11218143,0.970611572
0.001754761,13.11141849,0.977142334
0.002944946,13.11096073,0.982543945
0.005157471,13.11050296,0.988586426
0.003768921,13.11141849,0.994171143
0.002090454,13.1112659,0.999450684
0.006820679,13.11187625,1.0050354
0.004867554,13.1112659,1.010253906
0.002655029,13.11080814,1.015197754
0.003875732,13.10989261,1.019897461
0.006484985,13.11065555,1.024902344
0.003158569,13.09921146,1.02935791
0.006530762,13.09860111,1.034088135
0.001266479,13.10043216,1.038421631
0.001602173,13.09860111,1.043243408
0.003051758,13.09890628,1.04776001
0.009262085,13.09936405,1.052154541
0.017929077,13.10043216,1.057098389
0.028961182,13.09905887,1.062194824
0.032821655,13.09951663,1.066986084
0.022399902,13.0987537,1.072021484
0.003585815,13.09951663,1.077301025
-0.004852295,13.10027957,1.082214355
-0.00920105,13.10027957,1.087585449
-0.012405396,13.08746219,1.09274292
-0.014434814,13.08746219,1.097930908
-0.012802124,13.08700443,1.103363037
-0.015762329,13.08639408,1.108917236
-0.019287109,13.08669925,1.114440918
-0.054138184,13.08791996,1.119995117
-0.036010742,13.08624149,1.126098633
0.132888794,13.08685184,1.132324219
0.430908203,13.0873096,1.139068604
0.646072388,13.08700443,1.145477295
0.253295898,13.08669925,1.152313232
-0.258407593,13.08593631,1.158813477
-0.406417847,13.08624149,1.165527344
-0.339477539,13.08700443,1.172790527
-0.206253052,13.08517337,1.179779053
-0.088043213,13.07403446,1.18737793
-0.015609741,13.07388187,1.194396973
0.009155273,13.07372928,1.201934814
0.020187378,13.07403446,1.209686279
0.022415161,13.07418704,1.216827393
0.029083252,13.07388187,1.224456787
0.032165527,13.07525516,1.231750488
0.038742065,13.07418704,1.239807129
0.041046143,13.07433963,1.2472229
0.04901123,13.07433963,1.25479126
0.05065918,13.06442142,1.262145996
0.059783936,13.06228519,1.269622803
0.070648193,13.06289554,1.276824951
0.077713013,13.06289554,1.284423828
0.085739136,13.0633533,1.291564941
0.104370117,13.06228519,1.298492432
0.114990234,13.0621326,1.305603027
0.120040894,13.06259037,1.312042236
0.123016357,13.06289554,1.318969727
0.124389648,13.0621326,1.32510376
0.098800659,13.05282474,1.331451416
0.045837402,13.05023075,1.33706665
-0.025344849,13.04870487,1.343109131
-0.088119507,13.04809452,1.348632813
-0.138519287,13.05038333,1.353759766
-0.166503906,13.04992557,1.358764648
-0.184707642,13.04946781,1.363616943
-0.182647705,13.04962039,1.368103027
-0.169067383,13.04962039,1.372344971
-0.152740479,13.04977298,1.376281738
-0.141571045,13.04992557,1.380432129
-0.124725342,13.04977298,1.383758545
-0.112243652,13.05007816,1.387237549
-0.095352173,13.04870487,1.390533447
-0.084701538,13.04992557,1.392669678
-0.072280884,13.04977298,1.395355225
-0.061782837,13.05053592,1.397247314
-0.052764893,13.04885746,1.399627686
-0.04776001,13.04641605,1.400268555
-0.038040161,13.03863407,1.402099609
-0.033554077,13.03741336,1.402252197
-0.027511597,13.03787113,1.402893066
-0.025588989,13.03893924,1.404602051
-0.019210815,13.03802371,1.404815674
-0.017440796,13.03924442,1.40335083
-0.013076782,13.03787113,1.402496338
-0.01663208,13.03741336,1.402130127
-0.015808105,13.03741336,1.400024414
-0.01335144,13.03893924,1.398681641
-0.010482788,13.03863407,1.39642334
-0.011444092,13.03848148,1.393737793
-0.007522583,13.03848148,1.390716553
-0.007659912,13.0381763,1.387512207
-0.005325317,13.03924442,1.383789063
-0.003631592,13.03787113,1.380523682
-0.000396729,13.03726078,1.376434326
-0.003189087,13.0369556,1.371826172
-0.004043579,13.03832889,1.367279053
-0.004547119,13.03893924,1.362304688
-0.000732422,13.03726078,1.357299805
0.001068115,13.0381763,1.351257324
0.004623413,13.03909183,1.345825195
0.002716064,13.03680301,1.33972168
0.005096436,13.0381763,1.333648682
0.003494263,13.03802371,1.327056885
0.003463745,13.03741336,1.320953369
0.004699707,13.03802371,1.314300537
0.008804321,13.03771854,1.307342529
0.004623413,13.0381763,1.300964355
0.005203247,13.03726078,1.2940979
0.006164551,13.03863407,1.287200928
0.007583618,13.03802371,1.280090332
0.003265381,13.03710819,1.273071289
0.007171631,13.03863407,1.266052246
0.00440979,13.03680301,1.259124756
4.58E-05,13.0381763,1.251861572
0.001754761,13.0369556,1.2449646
0.009231567,13.03832889,1.237915039
0.010665894,13.03619266,1.230804443
0.012496948,13.03848148,1.224029541
0.023483276,13.03832889,1.217254639
0.030197144,13.03802371,1.210479736
0.012268066,13.03863407,1.203308105
-0.002716064,13.03893924,1.196685791
-0.012512207,13.05007816,1.190093994
-0.011749268,13.05038333,1.183624268
-0.013336182,13.05007816,1.177520752
-0.012069702,13.04946781,1.171020508
-0.009231567,13.05007816,1.164672852
-0.007141113,13.05190921,1.158935547
-0.022781372,13.06243778,1.15234375
-0.05696106,13.06182743,1.146362305
0.007766724,13.06243778,1.140930176
0.229034424,13.07083011,1.134979248
0.53692627,13.07372928,1.129486084
0.597122192,13.07372928,1.124145508
0.077911377,13.08029056,1.117980957
-0.344970703,13.08685184,1.112884521
-0.405593872,13.08624149,1.107391357
-0.285095215,13.09570194,1.102386475
-0.143066406,13.09921146,1.096832275
-0.038116455,13.10287357,1.091552734
0.002883911,13.11141849,1.085754395
0.018249512,13.11096073,1.080322266
0.022415161,13.12316776,1.074890137
0.029190063,13.12362552,1.069152832
0.032836914,13.13659549,1.06338501
0.036254883,13.13659549,1.057800293
0.038787842,13.14758182,1.052215576
0.044235229,13.15353275,1.047058105
0.045806885,13.16055179,1.041748047
0.053482056,13.17092777,1.036254883
0.060455322,13.17779422,1.03112793
0.072463989,13.18618656,1.025756836
0.082626343,13.19640995,1.020965576
0.09463501,13.20800663,1.016357422
0.107452393,13.21792484,1.011535645
0.123077393,13.22860599,1.006622314
0.128173828,13.2385242,1.001861572
0.132080078,13.25057865,0.996795654
0.116973877,13.26370121,0.992126465
0.07862854,13.27697635,0.987548828
0.010848999,13.2914722,0.982421875
-0.057266235,13.30673099,0.977722168
-0.114227295,13.32382083,0.97253418
-0.153793335,13.33999515,0.967956543
-0.1769104,13.3583057,0.96295166
-0.179397583,13.37478519,0.958099365
-0.177154541,13.39218021,0.952911377
-0.163024902,13.41064334,0.948303223
-0.150466919,13.43047977,0.943817139
-0.134017944,13.44787479,0.939025879
-0.118469238,13.46938968,0.934265137
-0.101608276,13.49044681,0.929626465
-0.090072632,13.51028324,0.925109863
-0.073944092,13.5334766,0.920928955
-0.063720703,13.55621219,0.916290283
-0.052978516,13.5787952,0.912200928
-0.050537109,13.60305667,0.908203125
-0.042297363,13.6279285,0.904083252
-0.034744263,13.65432621,0.900177002
-0.028137207,13.68011356,0.89642334
-0.026428223,13.70574832,0.89251709
-0.019058228,13.73245121,0.889373779
-0.016067505,13.75823856,0.886077881
-0.011688232,13.78646732,0.882415771
-0.015365601,13.81484867,0.879608154
-0.013015747,13.84445072,0.876556396
-0.013458252,13.87191654,0.873901367
-0.009658813,13.90365482,0.871185303
-0.009094238,13.93203617,0.868286133
-0.007614136,13.96392704,0.866210938
-0.006286621,13.99291873,0.863647461
-0.001312256,14.02526737,0.861328125
-0.004455566,14.05532718,0.858978271
-0.001434326,14.08904911,0.856750488
-0.003479004,14.12078739,0.854766846
0.00050354,14.15420413,0.853057861
-0.000640869,14.18762088,0.851165771
0.003814697,14.22134281,0.848999023
0.004058838,14.25613285,0.847808838
0.005187988,14.28970218,0.846496582
0.000167847,14.32571292,0.843811035
0.000946045,14.36187625,0.842956543
0.00163269,14.39941288,0.841522217
0.003372192,14.43618656,0.839996338
0.00163269,14.47326541,0.839141846
0.004074097,14.51080204,0.837005615
0.001602173,14.54833866,0.836425781
0.000610352,14.58587528,0.834655762
-0.0025177,14.62478519,0.834014893
-0.000534058,14.66216922,0.832550049
-0.00050354,14.7003162,0.831542969
-0.000167847,14.7393787,0.830718994
-0.001602173,14.77752567,0.829315186
0,14.81506229,0.829223633
0.000930786,14.85320926,0.826904297
0.003250122,14.89074588,0.826965332
0.000869751,14.9282825,0.825469971
0.000823975,14.96627689,0.824432373
-0.002075195,15.00274539,0.824188232
0.001205444,15.03845096,0.821899414
-0.001922607,15.07476688,0.821960449
-0.001358032,15.10940433,0.819915771
-0.000442505,15.14587284,0.819396973
-0.000442505,15.17989994,0.818359375
0.003570557,15.21606327,0.816833496
0.006988525,15.25070072,0.81640625
-0.000732422,15.28320194,0.81463623
0.004959106,15.31722904,0.81451416
0.010543823,15.35110355,0.811981201
0.01512146,15.38497806,0.812164307
0.013671875,15.41808963,0.810089111
0.021499634,15.45181156,0.809448242
0.026062012,15.48614383,0.808197021
0.013442993,15.516814,0.807128906
-0.008926392,15.54885746,0.806030273
-0.015487671,15.58181644,0.804473877
-0.019699097,15.61050296,0.803894043
-0.02053833,15.63918949,0.802246094
-0.019195557,15.66955448,0.801025391
-0.018814087,15.69793582,0.799316406
-0.021408081,15.7272327,0.797851563
-0.032058716,15.75546146,0.796936035
-0.065811157,15.78155399,0.794799805
-0.004058838,15.80734134,0.79397583
0.197814941,15.83328128,0.792297363
0.501983643,15.85677982,0.790618896
0.582015991,15.88302494,0.789855957
0.090606689,15.90591312,0.787384033
-0.33303833,15.92742801,0.785736084
-0.404281616,15.9489429,0.784484863
-0.287002563,15.97076297,0.782226563
-0.139083862,15.99426151,0.781433105
-0.039154053,16.01730228,0.779785156
0.000717163,16.03820682,0.778137207
0.010940552,16.05911136,0.777282715
0.018951416,16.08093143,0.774963379
0.022369385,16.10320926,0.773590088
0.026626587,16.1241138,0.77243042
0.030502319,16.14364505,0.770324707
0.037307739,16.16470218,0.769805908
0.038162231,16.18316532,0.767578125
0.043884277,16.20345951,0.767089844
0.04876709,16.22207523,0.765075684
0.057830811,16.23992801,0.764190674
0.066452026,16.25778079,0.762695313
0.078384399,16.27593875,0.762176514
0.093719482,16.28997684,0.760192871
0.108398438,16.3081348,0.759857178
0.120651245,16.3220203,0.757904053
0.135269165,16.33682132,0.757385254
0.13710022,16.35238529,0.755371094
0.125701904,16.36596561,0.754852295
0.092544556,16.3824451,0.752929688
0.034347534,16.39648319,0.751647949
-0.037704468,16.40853763,0.750152588
-0.102462769,16.42059207,0.747894287
-0.149841309,16.43295169,0.746124268
-0.175262451,16.44576908,0.744018555
-0.187652588,16.45843387,0.742340088
-0.185699463,16.46911502,0.740142822
-0.177352905,16.47842288,0.738189697
-0.16166687,16.48925663,0.735870361
-0.149307251,16.49948001,0.733337402
-0.132904053,16.50604129,0.730926514
-0.119171143,16.51428104,0.728790283
-0.100357056,16.52389408,0.726226807
-0.089385986,16.52892948,0.723693848
-0.076126099,16.53900028,0.721130371
-0.066375732,16.54312015,0.719024658
-0.056655884,16.55090213,0.716491699
-0.052093506,16.5525806,0.714111328
-0.044967651,16.56432987,0.711730957
-0.044769287,16.56310916,0.709442139
-0.040359497,16.56844974,0.707611084
-0.038513184,16.57623172,0.70526123
-0.033401489,16.57470584,0.703552246
-0.030654907,16.57516361,0.701019287
-0.026184082,16.58798099,0.698822021
-0.024902344,16.58767581,0.697723389
-0.022460938,16.5878284,0.69619751
-0.024307251,16.58752323,0.693969727
-0.021347046,16.58843875,0.693634033
-0.022094727,16.58767581,0.691711426
-0.018798828,16.59835697,0.691070557
-0.019363403,16.59927249,0.691009521
-0.016784668,16.60034061,0.691375732
-0.01512146,16.59973026,0.691467285
-0.01184082,16.59973026,0.691436768
-0.010162354,16.60003543,0.691345215
-0.006057739,16.59988285,0.69140625
-0.005508423,16.59942508,0.692626953
-0.003326416,16.60034061,0.693847656
-0.001495361,16.60003543,0.695556641
0.003509521,16.6004932,0.697143555
0.006149292,16.59988285,0.698944092
0.008850098,16.6004932,0.701507568
0.007904053,16.59957767,0.704101563
0.010528564,16.60125614,0.706848145
0.00604248,16.60064579,0.709777832
0.004241943,16.59896732,0.712493896
0.002593994,16.59332157,0.716125488
0.002929688,16.58737064,0.719818115
0.003952026,16.58737064,0.723693848
0.008544922,16.58706546,0.727508545
0.0050354,16.58691288,0.731903076
0.004577637,16.5878284,0.73626709
0.00428772,16.57623172,0.740753174
0.004089355,16.57501102,0.745513916
-0.000320435,16.57623172,0.750610352
0.001480103,16.57256961,0.755554199
0.004547119,16.56249881,0.7605896
0.006210327,16.56310916,0.765869141
-0.000259399,16.56097293,0.771209717
0.003341675,16.55029178,0.776611328
0.00553894,16.55120731,0.782104492
0.005401611,16.54617191,0.787445068
-9.16E-05,16.53838993,0.79296875
0.004684448,16.53838993,0.798797607
0.000595093,16.52877689,0.804534912
0.002166748,16.52557254,0.810150146
0.004592896,16.52191043,0.81628418
-0.000747681,16.51397586,0.822021484
0.000701904,16.51321292,0.828063965
0.010009766,16.50237918,0.83392334
0.011352539,16.50146366,0.839447021
0.018493652,16.49322391,0.845916748
0.028106689,16.48803592,0.851501465
0.036819458,16.48422122,0.857269287
0.024261475,16.4782703,0.863220215
0.006546021,16.47048831,0.868927002
-0.007827759,16.46484256,0.874542236
-0.010681152,16.45583988,0.880584717
-0.011581421,16.4492786,0.88583374
-0.011169434,16.44058109,0.89151001
-0.012664795,16.43264652,0.897064209
-0.010025024,16.42623783,0.902770996
-0.017974854,16.41616703,0.908355713
-0.050964355,16.40914798,0.914093018
-0.023178101,16.4025867,0.92010498
0.160247803,16.39205814,0.925689697
0.458404541,16.38580204,0.932006836
0.646453857,16.37924076,0.937957764
0.215316772,16.36871219,0.944091797
-0.275527954,16.36123538,0.950012207
-0.405471802,16.35574222,0.956512451
-0.322189331,16.34414554,0.963348389
-0.191589355,16.33880496,0.970062256
-0.073120117,16.33102298,0.97668457
-0.009170532,16.32079959,0.98336792
0.012313843,16.3143909,0.989990234
0.016448975,16.30615116,0.997131348
0.026046753,16.29516483,1.003936768
0.028671265,16.28906131,1.010803223
0.032867432,16.28265262,1.017822266
0.032592773,16.27273441,1.024230957
0.03704834,16.26602054,1.03125
0.040725708,16.25823856,1.038238525
0.046966553,16.24847293,1.045043945
0.054901123,16.24374271,1.051818848
0.066040039,16.23443485,1.05859375
0.07623291,16.22512699,1.065338135
0.089797974,16.22039676,1.071685791
0.104370117,16.20880008,1.078155518
0.119857788,16.20254398,1.084869385
0.125167847,16.19583011,1.091156006
0.132644653,16.18392826,1.097198486
0.128540039,16.17950321,1.102752686
0.100814819,16.1708057,1.108551025
0.043395996,16.15951419,1.114471436
-0.026733398,16.15142704,1.119781494
-0.096633911,16.14364505,1.124816895
-0.14604187,16.13479496,1.129852295
-0.180969238,16.12457157,1.134918213
-0.191680908,16.11709476,1.139770508
-0.192230225,16.10885501,1.144561768
-0.183441162,16.09802127,1.148925781
-0.170776367,16.09191776,1.153503418
-0.154434204,16.08535648,1.15826416
-0.137313843,16.07269168,1.162658691
-0.121353149,16.0661304,1.167144775
-0.109085083,16.06140018,1.171600342
-0.095458984,16.04873538,1.175933838
-0.085525513,16.04217411,1.180297852
-0.071914673,16.03774906,1.184875488
-0.0597229,16.02432132,1.189086914
-0.053573608,16.01791263,1.193695068
-0.047119141,16.01226688,1.197540283
-0.039321899,16.00082279,1.202209473
-0.035064697,15.99288822,1.206848145
-0.028778076,15.98754764,1.211853027
-0.024887085,15.9767139,1.216094971
-0.022476196,15.97137332,1.220855713
-0.021530151,15.9628284,1.225494385
-0.017669678,15.95382572,1.230499268
-0.016372681,15.94985843,1.235626221
-0.016784668,15.93871952,1.240539551
-0.01864624,15.93276859,1.245513916
-0.017379761,15.92559696,1.250518799
-0.017913818,15.91613651,1.255371094
-0.012634277,15.91216922,1.260559082
-0.007095337,15.90103031,1.265655518
-0.004882813,15.89385868,1.270263672
-0.006530762,15.89065433,1.275115967
-0.000579834,15.87753177,1.278930664
-0.00201416,15.87234378,1.283172607
0.001296997,15.86425663,1.286987305
0.002883911,15.85525394,1.290527344
0.001296997,15.84854007,1.293762207
0.003372192,15.84106327,1.296630859
0.009735107,15.83068729,1.299255371
0.008956909,15.82504154,1.301269531
0.012924194,15.81710697,1.303314209
0.013534546,15.80764652,1.304260254
0.013427734,15.80261112,1.306365967
0.009063721,15.79299808,1.306518555
0.010726929,15.78613163,1.306610107
0.0105896,15.77987552,1.308746338
0.011749268,15.77041507,1.308258057
0.00869751,15.76721073,1.306732178
0.010040283,15.75485111,1.306427002
0.005981445,15.75256229,1.306030273
0.011199951,15.74325443,1.304077148
0.010818481,15.73654056,1.30255127
0.014358521,15.73043704,1.30065918
0.0103302,15.72296024,1.297851563
0.004501343,15.71884037,1.29498291
0.006713867,15.70739627,1.291625977
0.014022827,15.70602298,1.288116455
0.014526367,15.6944263,1.284088135
0.021713257,15.69290042,1.279907227
0.034835815,15.68160892,1.275054932
0.034347534,15.67886234,1.270446777
0.016677856,15.67062259,1.265411377
0.003326416,15.66573978,1.260040283
-0.005279541,15.65841556,1.25479126
-0.005905151,15.65231204,1.249786377
-0.010726929,15.64483524,1.244262695
-0.010040283,15.63934207,1.238647461
-0.007003784,15.63262821,1.232879639
-0.009002686,15.62713504,1.227294922
-0.031585693,15.6213367,1.221282959
-0.057449341,15.61370731,1.215789795
0.022598267,15.6088245,1.209960938
0.255233765,15.60287357,1.203948975
0.566360474,15.59692264,1.198394775
0.565338135,15.58944583,1.192687988
0.021591187,15.5848682,1.186218262
-0.362213135,15.57800174,1.180541992
-0.396759033,15.5722034,1.1746521
-0.279937744,15.56548954,1.168518066
-0.141433716,15.55938602,1.16305542
-0.036102295,15.55297733,1.15737915
0.004119873,15.54809452,1.151702881
0.020904541,15.53771854,1.145965576
0.025909424,15.53588748,1.140197754
0.032516479,15.5230701,1.134613037
0.035308838,15.52001834,1.129089355
0.039306641,15.51071048,1.122924805
0.040023804,15.50506473,1.116943359
0.044921875,15.49850345,1.111114502
0.048873901,15.49346805,1.104797363
0.05456543,15.48675418,1.098876953
0.061141968,15.47912479,1.09286499
0.072479248,15.47469974,1.086578369
0.082641602,15.46691776,1.08013916
0.099700928,15.46142459,1.07421875
0.111358643,15.45394779,1.067810059
0.121154785,15.44952274,1.06149292
0.126068115,15.44357181,1.055541992
0.129013062,15.43777347,1.04901123
0.115310669,15.43350101,1.043182373
0.077011108,15.4235828,1.036468506
0.015380859,15.42556644,1.029846191
-0.055465698,15.41381717,1.023498535
-0.114120483,15.41290164,1.017181396
-0.15322876,15.40496707,1.0105896
-0.175888062,15.40023685,1.003753662
-0.181167603,15.3970325,0.996917725
-0.17767334,15.38864017,0.989929199
-0.16607666,15.38787723,0.983459473
-0.154708862,15.3794849,0.977081299
-0.136764526,15.3756702,0.970275879
-0.123352051,15.37200809,0.963867188
-0.109695435,15.36376834,0.957397461
-0.096694946,15.36392093,0.951019287
-0.084136963,15.35354496,0.944976807
-0.07434082,15.35125614,0.939147949
-0.064529419,15.34850955,0.932830811
-0.056808472,15.33874393,0.927215576
-0.044540405,15.33874393,0.921142578
-0.040252686,15.33111454,0.915863037
-0.03302002,15.32562137,0.910644531
-0.028762817,15.32607913,0.905273438
-0.025817871,15.31326175,0.900360107
-0.024337769,15.31310916,0.895355225
-0.023040771,15.30914188,0.890686035
-0.023605347,15.30273319,0.886383057
-0.021331787,15.30166507,0.882049561
-0.021377563,15.29464603,0.877532959
-0.018707275,15.29037357,0.874023438
-0.020690918,15.2899158,0.869781494
-0.020614624,15.28030277,0.86618042
-0.016662598,15.27770877,0.862548828
-0.015441895,15.27786136,0.859283447
-0.017059326,15.26626468,0.855407715
-0.009399414,15.26458621,0.852050781
-0.003341675,15.26595951,0.848449707
-0.00189209,15.25421024,0.845245361
-0.003829956,15.25375247,0.842437744
-0.002883911,15.25268436,0.839660645
-7.63E-05,15.24139286,0.836120605
-0.000442505,15.24124027,0.8331604
-0.001220703,15.24093509,0.830230713
-0.001098633,15.23010135,0.827514648
-0.002288818,15.22979618,0.824951172
0.001464844,15.22674442,0.822357178
0.003585815,15.21713138,0.819458008
0.005447388,15.21697879,0.816864014
0.00352478,15.21041751,0.814361572
0.005996704,15.20614505,0.811981201
0.004211426,15.20477176,0.809417725
0.004959106,15.19592166,0.807037354
0.001556396,15.1916492,0.804718018
-1.53E-05,15.19180179,0.802246094
-0.000823975,15.18493534,0.799926758
0.00177002,15.17898441,0.797607422
0.001586914,15.18096805,0.795257568
0.000335693,15.17776371,0.793121338
-0.003158569,15.16738773,0.790802002
0.005981445,15.16845584,0.788970947
0.011230469,15.1676929,0.787017822
0.01499939,15.16662479,0.784851074
0.018783569,15.1551807,0.782775879
0.029586792,15.15594364,0.780700684
0.026428223,15.15472293,0.778778076
0.010025024,15.15457035,0.776824951
-0.00390625,15.15090824,0.774902344
-0.009689331,15.14343143,0.772644043
-0.012359619,15.14404178,0.770782471
-0.013153076,15.14358402,0.7684021
-0.011489868,15.14343143,0.766540527
-0.009841919,15.14282108,0.764282227
-0.020126343,15.13061405,0.762512207
-0.054931641,15.13076663,0.759918213
-0.03515625,15.12985111,0.757995605
0.123931885,15.13046146,0.755981445
0.409698486,15.12924076,0.753997803
0.631515503,15.13030887,0.752227783
0.270980835,15.12512088,0.749664307
-0.237075806,15.11871219,0.747802734
-0.408691406,15.1185596,0.745025635
-0.328170776,15.11871219,0.743438721
-0.172515869,15.1185596,0.741210938
-0.053619385,15.1173389,0.739654541
-0.002944946,15.1185596,0.738098145
0.018081665,15.11947513,0.735473633
0.022766113,15.11398197,0.733917236
0.027984619,15.10558963,0.73223877
0.029541016,15.10681034,0.73046875
0.036911011,15.10619998,0.728668213
0.042098999,15.1072681,0.727203369
0.046981812,15.10528446,0.725830078
0.049636841,15.10589481,0.723815918
0.056213379,15.10558963,0.722595215
0.058319092,15.1060474,0.720672607
0.065032959,15.1060474,0.719543457
0.077438354,15.10482669,0.718261719
0.088546753,15.10619998,0.717163086
0.100021362,15.10635257,0.715911865
0.116760254,15.09536624,0.71572876
0.12512207,15.09429813,0.713623047
0.131622314,15.09307743,0.713562012
0.121810913,15.09490848,0.713409424
0.093292236,15.09353519,0.712005615
0.038879395,15.09445072,0.710876465
-0.027404785,15.09292484,0.710906982
-0.097366333,15.09445072,0.710968018
-0.14630127,15.0946033,0.710845947
-0.176925659,15.09384037,0.711029053
-0.188766479,15.09368778,0.71081543
-0.187179565,15.09414554,0.71081543
-0.17817688,15.09445072,0.712158203
-0.167480469,15.09307743,0.71307373
-0.145477295,15.09490848,0.713531494
-0.129425049,15.09368778,0.715637207
-0.117279053,15.09414554,0.71697998
-0.10635376,15.09445072,0.718658447
-0.090988159,15.09445072,0.720611572
-0.081451416,15.09521366,0.723052979
-0.065551758,15.09490848,0.725646973
-0.055801392,15.09261966,0.728637695
-0.048492432,15.09277225,0.731292725
-0.042144775,15.09353519,0.734527588
-0.037231445,15.09445072,0.737976074
-0.032852173,15.09429813,0.741729736
-0.027297974,15.09414554,0.745727539
-0.022842407,15.09277225,0.749725342
-0.018341064,15.09353519,0.754089355
-0.020446777,15.09109378,0.758148193
-0.017105103,15.08270145,0.762969971
-0.017272949,15.08148075,0.767791748
-0.01272583,15.0820911,0.772705078
-0.013366699,15.08239627,0.777526855
-0.014450073,15.08148075,0.783233643
-0.0128479,15.08270145,0.787994385
-0.008758545,15.08132816,0.793365479
-0.01083374,15.08163333,0.79876709
-0.009109497,15.08300663,0.804534912
-0.008544922,15.08224369,0.809967041
-0.004074097,15.08254886,0.815643311
-0.0025177,15.08056522,0.821624756
0.002334595,15.08132816,0.826965332
0.005874634,15.08117557,0.83303833
0.004043579,15.08102298,0.838653564
0.003997803,15.08010746,0.844390869
0.00869751,15.08178592,0.850280762
0.005996704,15.08178592,0.856384277
0.006332397,15.08132816,0.862060547
0.006973267,15.08071781,0.867523193
0.008285522,15.08132816,0.873321533
0.008239746,15.07964969,0.87878418
0.008773804,15.08087039,0.884552002
0.008346558,15.08239627,0.890441895
0.012191772,15.07476688,0.895996094
0.012481689,15.06896854,0.90234375
0.013473511,15.06896854,0.90838623
0.012252808,15.06957889,0.914672852
0.004272461,15.06896854,0.921142578
0.005630493,15.06957889,0.927734375
0.015777588,15.07095218,0.934326172
0.016082764,15.06957889,0.941375732
0.020874023,15.06988407,0.948486328
0.034118652,15.06957889,0.955078125
0.034698486,15.06927371,0.962799072
0.015350342,15.06912113,0.970306396
0.002120972,15.06896854,0.977813721
-0.002563477,15.06957889,0.985351563
-0.003097534,15.06896854,0.993011475
-0.006973267,15.06652713,1.00088501
-0.006896973,15.05706668,1.008575439
-0.009979248,15.05889774,1.016418457
-0.009719849,15.05798221,1.024078369
-0.034225464,15.05767704,1.032073975
-0.045196533,15.05676151,1.039642334
0.073608398,15.05706668,1.047943115
0.326889038,15.05828739,1.056152344
0.626663208,15.05706668,1.063873291
0.470413208,15.05798221,1.071563721
-0.101089478,15.05798221,1.08013916
-0.390563965,15.0581348,1.088470459
-0.378387451,15.05752445,1.09664917
-0.249389648,15.04669071,1.105651855
-0.117462158,15.04501224,1.114654541
-0.02406311,15.04531742,1.123596191
0.011672974,15.04470706,1.132537842
0.028106689,15.04531742,1.142181396
0.033447266,15.04531742,1.151428223
0.03666687,15.04577518,1.160461426
0.039962769,15.04531742,1.170166016
0.040405273,15.04501224,1.179870605
0.038345337,15.04485965,1.189331055
0.048675537,15.04638553,1.198913574
0.053451538,15.04516483,1.208740234
0.059295654,15.03341556,1.218353271
0.068267822,15.03341556,1.228302002
0.084335327,15.03341556,1.237426758
0.095077515,15.03265262,1.247497559
0.104400635,15.03280521,1.256561279
0.113952637,15.03372074,1.266021729
0.125930786,15.03463626,1.275695801
0.127380371,15.03280521,1.284851074
0.130111694,15.03326297,1.293762207
0.112091064,15.02303958,1.30279541
0.065658569,15.02242923,1.311279297
-0.004898071,15.02136112,1.320007324
-0.076141357,15.02059818,1.328063965
-0.133026123,15.02151371,1.336761475
-0.167663574,15.02044559,1.344299316
-0.186294556,15.02136112,1.35256958
-0.1849823,15.02120853,1.359832764
-0.177459717,15.0178516,1.367279053
-0.165405273,15.00884891,1.375030518
-0.152191162,15.00778079,1.382141113
-0.135803223,15.00869632,1.389190674
-0.121429443,15.00869632,1.395965576
-0.108734131,15.00839115,1.402587891
-0.094055176,15.00839115,1.408782959
-0.078948975,15.00884891,1.415008545
-0.067047119,14.99938846,1.420349121
-0.056594849,14.99587894,1.426055908
-0.047180176,14.99648929,1.431213379
-0.04309082,14.99603153,1.436065674
-0.037322998,14.99648929,1.440643311
-0.026550293,14.99587894,1.444488525
-0.024185181,14.9963367,1.448059082
-0.022018433,14.98763919,1.451263428
-0.020172119,14.98458744,1.454650879
-0.012496948,14.98412967,1.456970215
-0.014099121,14.98443485,1.459381104
-0.011413574,14.98428226,1.461242676
-0.010025024,14.98412967,1.461547852
-0.012283325,14.98077274,1.463378906
-0.016662598,14.97146488,1.464080811
-0.01449585,14.97161746,1.463775635
-0.013198853,14.97146488,1.463012695
-0.009338379,14.97100711,1.461517334
-0.007537842,14.97039676,1.460723877
-0.006011963,14.97024417,1.459106445
-0.006072998,14.95910526,1.456634521
-0.000198364,14.9598682,1.454467773
0.001480103,14.95834232,1.451171875
-0.001983643,14.95941043,1.448272705
-0.005981445,14.95910526,1.44442749
-0.005157471,14.96093631,1.44052124
-0.003952026,14.9472034,1.43637085
0.001068115,14.94842411,1.43170166
-0.000335693,14.94644046,1.427093506
-0.003952026,14.9472034,1.421936035
0.003829956,14.94567752,1.4168396
0.014587402,14.94384647,1.411224365
0.009735107,14.9359119,1.405944824
0.01399231,14.93484378,1.399993896
0.024887085,14.93621707,1.394317627
0.032409668,14.93438602,1.388183594
0.017059326,14.93499637,1.382324219
0.00100708,14.93102909,1.375915527
-0.00869751,14.92278934,1.369903564
-0.013290405,14.92217899,1.363067627
-0.014724731,14.92050052,1.3565979
-0.007904053,14.92294193,1.349822998
-0.008377075,14.92217899,1.343048096
-0.011077881,14.90981937,1.336120605
-0.032089233,14.9107349,1.32925415
-0.055633545,14.9107349,1.32208252
0.037765503,14.90981937,1.314849854
0.277420044,14.89974857,1.308135986
0.578231812,14.89745975,1.300750732
0.538162231,14.89868045,1.293395996
-0.019943237,14.89791751,1.285827637
-0.382675171,14.89074588,1.278411865
-0.394332886,14.88586307,1.271453857
-0.263916016,14.88586307,1.264221191
-0.120880127,14.88601566,1.257385254
-0.022140503,14.88571048,1.250457764
0.014038086,14.87502933,1.243408203
0.024505615,14.87396121,1.236907959
0.032028198,14.87426639,1.230438232
0.03994751,14.87304569,1.223510742
0.040649414,14.87350345,1.217559814
0.040298462,14.87136722,1.211029053
0.041412354,14.86083866,1.205505371
0.044799805,14.86205936,1.199188232
0.049636841,14.86083866,1.193817139
0.055877686,14.8616016,1.188079834
0.06262207,14.86205936,1.182769775
0.074798584,14.85961795,1.177978516
0.085128784,14.84878421,1.17276001
0.096832275,14.84985233,1.168273926
0.107391357,14.84939456,1.164001465
0.119644165,14.84985233,1.160186768
0.126251221,14.85000492,1.155578613
0.123703003,14.84725833,1.151641846
0.099624634,14.83779788,1.147735596
0.050048828,14.83657718,1.143432617
-0.018356323,14.83642459,1.138916016
-0.084091187,14.83688236,1.135131836
-0.139831543,14.83779788,1.130523682
-0.174362183,14.83398319,1.12612915
-0.188293457,14.82513309,1.122009277
-0.185272217,14.82437015,1.117492676
-0.177978516,14.82589603,1.113311768
-0.167007446,14.82513309,1.108551025
-0.151184082,14.8237598,1.104675293
-0.135437012,14.8175037,1.100646973
-0.118789673,14.81231571,1.096130371
-0.104110718,14.81292606,1.092315674
-0.093399048,14.81277347,1.088439941
-0.074432373,14.81262088,1.084533691
-0.062026978,14.81277347,1.081115723
-0.049499512,14.80132938,1.07723999
-0.042388916,14.80193973,1.073913574
-0.032867432,14.8010242,1.070343018
-0.028900146,14.80224491,1.067016602
-0.024978638,14.80010868,1.063690186
-0.020675659,14.79919315,1.060577393
-0.015411377,14.78820682,1.057403564
-0.015808105,14.78835941,1.05480957
-0.015563965,14.78729129,1.052062988
-0.018203735,14.78805423,1.049346924
-0.015838623,14.78835941,1.046936035
-0.016693115,14.78515506,1.044281006
-0.014785767,14.77645755,1.041809082
-0.013656616,14.77691532,1.039611816
-0.012512207,14.77676273,1.037353516
-0.013427734,14.77508426,1.034973145
-0.010131836,14.77554203,1.03225708
-0.00793457,14.7708118,1.029785156
-0.007125854,14.76394535,1.027435303
-0.006149292,14.76364017,1.024719238
-0.003616333,14.76409793,1.022064209
-0.006225586,14.76272464,1.018798828
-0.000900269,14.76364017,1.015594482
-0.001373291,14.75890995,1.012268066
-0.001205444,14.75158573,1.008026123
-0.001937866,14.75082279,1.004241943
0.000289917,14.75036502,1.000274658
-0.000244141,14.75173831,0.995422363
0.000823975,14.75173831,0.991088867
4.58E-05,14.75158573,0.986419678
0.00112915,14.7393787,0.981628418
0.001251221,14.73861576,0.976623535
0.007568359,14.73968387,0.971313477
0.004898071,14.7393787,0.966583252
0.006240845,14.73846317,0.961395264
0.007110596,14.73968387,0.956451416
0.010116577,14.73022342,0.951416016
0.006576538,14.72808719,0.946228027
0.011230469,14.72701908,0.940917969
0.011871338,14.72717166,0.935577393
0.010238647,14.72625614,0.930633545
0.009536743,14.72778202,0.925628662
0.017318726,14.72396732,0.920166016
0.017669678,14.71557498,0.915130615
0.022735596,14.71496463,0.910125732
0.031845093,14.71511722,0.904846191
0.035064697,14.71465946,0.900054932
0.016326904,14.71435428,0.895477295
-0.001098633,14.71450687,0.890289307
-0.006774902,14.71069217,0.885864258
-0.003479004,14.7027576,0.880859375
-0.004135132,14.7027576,0.876800537
-0.008377075,14.7027576,0.87210083
-0.011901855,14.70306278,0.867858887
-0.010284424,14.70382572,0.863800049
-0.035720825,14.70291019,0.85949707
-0.053283691,14.70001102,0.855041504
0.050369263,14.68963504,0.850982666
0.293670654,14.69100833,0.847015381
0.590560913,14.69009281,0.843078613
0.465576172,14.69039798,0.839172363
-0.085510254,14.69070316,0.834899902
-0.394378662,14.69055057,0.83114624
-0.38293457,14.68871952,0.82723999
-0.230133057,14.67819095,0.823699951
-0.091918945,14.67849613,0.820465088
-0.015625,14.67712284,0.816986084
0.004776001,14.67773319,0.813903809
0.015472412,14.6775806,0.810577393
0.020492554,14.67864871,0.807739258
0.026016235,14.67849613,0.804534912
0.029556274,14.67315555,0.801361084
0.036010742,14.66567874,0.798583984
0.036529541,14.66689945,0.795684814
0.040466309,14.66613651,0.793457031
0.044250488,14.66735721,0.790679932
0.054946899,14.66705204,0.78805542
0.062408447,14.66583133,0.785766602
0.076965332,14.66567874,0.783569336
0.089599609,14.66506839,0.78125
0.106567383,14.65347171,0.779083252
0.121551514,14.65347171,0.777160645
0.138259888,14.65377689,0.774871826
0.142120361,14.6524036,0.772613525
0.140792847,14.6536243,0.770629883
0.123291016,14.65286136,0.76864624
0.075195313,14.65392948,0.766357422
0.000305176,14.65331913,0.764038086
-0.070465088,14.6485889,0.761260986
-0.129440308,14.64156986,0.759185791
-0.167633057,14.64141727,0.756317139
-0.185653687,14.64141727,0.753692627
-0.186767578,14.64202762,0.750946045
-0.179199219,14.64172245,0.747406006
-0.166976929,14.6423328,0.744110107
-0.152175903,14.64187503,0.741119385
-0.138137817,14.64187503,0.737640381
-0.125015259,14.63760257,0.733886719
-0.107879639,14.62982059,0.729797363
-0.094482422,14.62890506,0.726348877
-0.081451416,14.62982059,0.721954346
-0.070465088,14.62921024,0.71786499
-0.06161499,14.62951541,0.714019775
-0.056488037,14.62951541,0.709594727
-0.049209595,14.62936283,0.704803467
-0.047210693,14.62768436,0.700317383
-0.04296875,14.62814212,0.695556641
-0.03918457,14.62417484,0.690948486
-0.033691406,14.61532474,0.686676025
-0.029067993,14.61486698,0.6824646
-0.02456665,14.61593509,0.67779541
-0.022949219,14.61700321,0.673156738
-0.017318726,14.6157825,0.669281006
-0.015396118,14.61639286,0.664794922
-0.014587402,14.61685062,0.660614014
-0.013748169,14.61761356,0.656494141
-0.011077881,14.60891605,0.652770996
-0.008804321,14.60479618,0.64855957
-0.0078125,14.60525394,0.645690918
-0.006546021,14.60494876,0.641571045
-0.00428772,14.60418582,0.638458252
-0.004318237,14.60586429,0.635345459
-0.003555298,14.59792972,0.631866455
-0.00038147,14.59152103,0.628814697
0.004348755,14.59289432,0.626159668
-0.001068115,14.59274173,0.623504639
0.002883911,14.59304691,0.620910645
0.001174927,14.59091068,0.61831665
0.000656128,14.59197879,0.616088867
0.002349854,14.579314,0.61416626
0.00479126,14.5805347,0.611938477
0.002471924,14.57992435,0.609954834
0.004837036,14.58038211,0.607757568
0.007598877,14.58007694,0.606292725
0.011520386,14.57992435,0.605102539
0.011917114,14.5805347,0.602935791
0.008682251,14.5805347,0.602264404
0.007125854,14.58022953,0.600158691
0.007965088,14.57992435,0.600250244
0.008972168,14.57672,0.597869873
0.009506226,14.56756473,0.59777832
0.006103516,14.56680179,0.597229004
0.00491333,14.56893802,0.595367432
0.006011963,14.56802249,0.595245361
0.004714966,14.56756473,0.595367432
-0.004302979,14.56848026,0.595214844
0.004211426,14.56909061,0.59274292
0.01322937,14.56786991,0.59262085
0.021118164,14.56786991,0.59286499
0.017150879,14.56771732,0.593048096
0.025192261,14.56756473,0.594818115
0.025527954,14.56725955,0.595092773
0.007659912,14.56863285,0.595123291
-0.010131836,14.56756473,0.597076416
-0.018173218,14.56741214,0.597747803
-0.02142334,14.56817508,0.59967041
-0.02053833,14.56786991,0.6015625
-0.018585205,14.56619144,0.60369873
-0.015136719,14.56802249,0.606292725
-0.017669678,14.5666492,0.608856201
-0.040618896,14.56771732,0.611602783
-0.060256958,14.56802249,0.615386963
0.047271729,14.56680179,0.618835449
0.298706055,14.56786991,0.622680664
0.608032227,14.56771732,0.626831055
0.471572876,14.56756473,0.631164551
-0.071304321,14.56863285,0.635894775
-0.369720459,14.5666492,0.641143799
-0.363723755,14.56741214,0.646392822
-0.227218628,14.56771732,0.651947021
-0.094039917,14.56680179,0.657745361
-0.016036987,14.56817508,0.663757324
0.010299683,14.5666492,0.670166016
0.018417358,14.5704639,0.676635742
0.02545166,14.58068729,0.683746338
0.02947998,14.58129764,0.690490723
0.036636353,14.58038211,0.697418213
0.037582397,14.58038211,0.704589844
0.040771484,14.58511234,0.712036133
0.045227051,14.59197879,0.719207764
0.049957275,14.59274173,0.726898193
0.055389404,14.59167362,0.734436035
0.065582275,14.60403324,0.74206543
0.072113037,14.60388065,0.750152588
0.084854126,14.60494876,0.758056641
0.101242065,14.61669803,0.766265869
0.115310669,14.61654544,0.774047852
0.124298096,14.61868167,0.782623291
0.132598877,14.6284473,0.79095459
0.132095337,14.62951541,0.798858643
0.118453979,14.63806034,0.807250977
0.072296143,14.64218021,0.815460205
0.00440979,14.64492679,0.823669434
-0.070129395,14.65286136,0.831939697
-0.127349854,14.65438724,0.839630127
-0.16595459,14.66552616,0.847564697
-0.179840088,14.66689945,0.855255127
-0.183837891,14.6775806,0.862884521
-0.182754517,14.68032718,0.87008667
-0.170181274,14.69055057,0.877410889
-0.150985718,14.69482303,0.885009766
-0.131881714,14.70260501,0.892272949
-0.116333008,14.70992923,0.898834229
-0.107009888,14.71694828,0.905639648
-0.089584351,14.72656131,0.912475586
-0.079345703,14.73419071,0.919464111
-0.068267822,14.74090457,0.926116943
-0.058410645,14.75143314,0.932617188
-0.054244995,14.76104618,0.939056396
-0.048431396,14.76852298,0.945526123
-0.036376953,14.77737308,0.952362061
-0.033355713,14.78774906,0.958953857
-0.03137207,14.7985828,0.965637207
-0.028259277,14.80743289,0.972412109
-0.023864746,14.8161304,0.979492188
-0.023681641,14.82894779,0.986572266
-0.018997192,14.83901859,0.993774414
-0.01651001,14.85046268,1.001434326
-0.012664795,14.8616016,1.008758545
-0.015380859,14.87335086,1.016418457
-0.009750366,14.88555789,1.023895264
-0.009963989,14.89837528,1.031616211
-0.009048462,14.90981937,1.039611816
-0.009384155,14.92187381,1.047271729
-0.005020142,14.93362308,1.055480957
-0.003677368,14.94628788,1.063598633
-0.003005981,14.95803714,1.071624756
-0.004959106,14.97131229,1.080413818
-0.003479004,14.98275638,1.08883667
-0.009475708,14.99404788,1.097900391
-0.002578735,15.0064075,1.106719971
0.001586914,15.01815677,1.115905762
0.002456665,15.0291431,1.125152588
-0.000320435,15.04150272,1.134368896
-0.000305176,15.0518787,1.144195557
0.000808716,15.06393314,1.154174805
0.003799438,15.07491947,1.164001465
0.006088257,15.08590579,1.17401123
0.006530762,15.09689212,1.184112549
-0.002975464,15.10757328,1.193878174
0.001373291,15.11932254,1.204284668
0.009429932,15.13091922,1.213989258
0.011825562,15.1425159,1.224395752
0.017669678,15.15334964,1.234161377
0.034103394,15.16570926,1.24407959
0.036834717,15.179137,1.253753662
0.019973755,15.18936038,1.263702393
0.00038147,15.20019413,1.273712158
-0.002593994,15.21163822,1.283569336
-0.007858276,15.22262454,1.292816162
-0.00831604,15.23406864,1.302520752
-0.010498047,15.24520755,1.311828613
-0.004638672,15.25405765,1.320495605
-0.002670288,15.26534915,1.329528809
-0.014282227,15.27587772,1.337646484
-0.044296265,15.28610111,1.345855713
0.017181396,15.29449344,1.354095459
0.233978271,15.30319095,1.361724854
0.538467407,15.31448246,1.369171143
0.606246948,15.32546878,1.375671387
0.08770752,15.3315723,1.382080078
-0.338912964,15.33935428,1.387542725
-0.40171814,15.35110355,1.393127441
-0.302032471,15.35705448,1.398468018
-0.165649414,15.36285282,1.402954102
-0.054595947,15.37490726,1.40713501
0.006149292,15.37994266,1.410522461
0.020751953,15.38909793,1.413665771
0.027664185,15.39504886,1.416412354
0.033203125,15.40069461,1.418365479
0.037094116,15.41183353,1.419555664
0.038040161,15.41290164,1.421356201
0.041015625,15.42434574,1.422393799
0.043762207,15.42541385,1.422149658
0.048522949,15.43685794,1.422241211
0.053924561,15.43746829,1.422210693
0.061218262,15.44891239,1.419555664
0.068618774,15.44952274,1.419403076
0.079299927,15.45699954,1.417388916
0.088485718,15.46203495,1.415313721
0.104278564,15.46401859,1.412963867
0.116226196,15.47561527,1.410491943
0.123733521,15.47363163,1.40713501
0.11920166,15.47881961,1.403930664
0.104125977,15.48644901,1.40045166
0.062759399,15.48736454,1.396575928
-0.000396729,15.49041629,1.391906738
-0.068389893,15.49957157,1.38684082
-0.127609253,15.49926639,1.382049561
-0.17086792,15.50353885,1.375823975
-0.188308716,15.51147342,1.369934082
-0.190414429,15.50964237,1.363189697
-0.181747437,15.5117786,1.356842041
-0.169799805,15.52444339,1.349609375
-0.152984619,15.52444339,1.342468262
-0.137802124,15.52398563,1.334747314
-0.123352051,15.52368045,1.326660156
-0.109909058,15.5357349,1.319763184
-0.095565796,15.53436161,1.311187744
-0.081726074,15.5357349,1.303192139
-0.071685791,15.53527713,1.295196533
-0.064453125,15.53481937,1.28692627
-0.051483154,15.53527713,1.279083252
-0.043579102,15.53527713,1.271148682
-0.033859253,15.5357349,1.263122559
-0.028274536,15.53604007,1.255493164
-0.022796631,15.53542972,1.247528076
-0.020446777,15.54794193,1.239776611
-0.018966675,15.54794193,1.232299805
-0.024368286,15.5482471,1.22479248
-0.022094727,15.54855228,1.217102051
-0.019836426,15.54778934,1.210021973
-0.018035889,15.54794193,1.202514648
-0.014541626,15.53878665,1.195129395
-0.011657715,15.53420902,1.188110352
-0.015289307,15.53512454,1.180511475
-0.010803223,15.53558231,1.173492432
-0.006103516,15.53527713,1.166534424
-0.006210327,15.53481937,1.159515381
-0.008209229,15.53542972,1.152435303
-0.007019043,15.53542972,1.145690918
-0.006729126,15.53558231,1.138946533
-0.003890991,15.53527713,1.132110596
-0.005813599,15.52841068,1.125396729
-0.003433228,15.5242908,1.118560791
-0.003005981,15.52276493,1.111999512
-0.00163269,15.52276493,1.105499268
0.002792358,15.51818729,1.098937988
0.005828857,15.51162601,1.092224121
0.005889893,15.51193119,1.085388184
0.007354736,15.51086307,1.078857422
0.005661011,15.50048709,1.071899414
0.008682251,15.50033451,1.065551758
0.011642456,15.4991138,1.058349609
0.012008667,15.4940784,1.050811768
0.01449585,15.48644901,1.043334961
0.010314941,15.48675418,1.035949707
0.009872437,15.48599124,1.028259277
0.020004272,15.47714115,1.019958496
0.021987915,15.47454715,1.012268066
0.023498535,15.47424198,1.003967285
0.028945923,15.46920658,0.995269775
0.036300659,15.46249271,0.987182617
0.023452759,15.46142459,0.9793396
0.007644653,15.45928836,0.970306396
-0.001922607,15.45043827,0.962097168
-0.005706787,15.44830204,0.953887939
-0.008255005,15.4487598,0.945709229
-0.008972168,15.43731571,0.937988281
-0.010147095,15.436095,0.929595947
-0.009658813,15.43472171,0.921844482
-0.021606445,15.4248035,0.913848877
-0.053741455,15.42465091,0.906280518
-0.012237549,15.4197681,0.898895264
0.176696777,15.41183353,0.891571045
0.473022461,15.41213871,0.884277344
0.606399536,15.40374637,0.877288818
0.148635864,15.3996265,0.87020874
-0.310577393,15.40130496,0.863525391
-0.41607666,15.38848758,0.857299805
-0.29850769,15.38726688,0.850891113
-0.144210815,15.38345218,0.845092773
-0.038925171,15.37658573,0.839324951
-0.000808716,15.37643314,0.833526611
0.014587402,15.36575199,0.828613281
0.021194458,15.36361576,0.823120117
0.027389526,15.36132694,0.818206787
0.032653809,15.35110355,0.813690186
0.036529541,15.35247684,0.809448242
0.037780762,15.34210086,0.805419922
0.0443573,15.33889652,0.801300049
0.050048828,15.33737064,0.79800415
0.05682373,15.3265369,0.794128418
0.06262207,15.32501102,0.790863037
0.071777344,15.32058597,0.787994385
0.083602905,15.3138721,0.785552979
0.096710205,15.31402469,0.782592773
0.110443115,15.30288578,0.78036499
0.12387085,15.30181766,0.777923584
0.134643555,15.29571414,0.776092529
0.140289307,15.29067874,0.774200439
0.128555298,15.2874744,0.772460938
0.092376709,15.27923465,0.77041626
0.027801514,15.27755619,0.768127441
-0.04208374,15.26687503,0.766387939
-0.107452393,15.26504398,0.764099121
-0.153762817,15.26092411,0.761688232
-0.178695679,15.25283695,0.759399414
-0.184326172,15.25237918,0.757232666
-0.181411743,15.24062992,0.754638672
-0.170578003,15.24108768,0.752197266
-0.157348633,15.23086429,0.749572754
-0.140899658,15.22888065,0.747283936
-0.125564575,15.22094608,0.744689941
-0.113174438,15.21575809,0.74206543
-0.104171753,15.20995975,0.739135742
-0.091934204,15.20339847,0.736968994
-0.081237793,15.20080448,0.734161377
-0.069351196,15.19073368,0.731658936
-0.058578491,15.1904285,0.729125977
-0.046829224,15.17989994,0.726654053
-0.041564941,15.17928958,0.723846436
-0.035644531,15.17104984,0.721801758
-0.031784058,15.16708255,0.719299316
-0.027954102,15.16448856,0.717163086
-0.029327393,15.15441776,0.715118408
-0.025787354,15.15533329,0.713317871
-0.025466919,15.14861942,0.710784912
-0.022323608,15.14327884,0.709320068
-0.019424438,15.14266849,0.7081604
-0.018630981,15.13091922,0.706115723
-0.018280029,15.13061405,0.704376221
-0.013763428,15.12771488,0.703765869
-0.012237549,15.12008548,0.701171875
-0.011383057,15.11901737,0.700958252
-0.010009766,15.11459232,0.698638916
-0.004394531,15.10513187,0.698577881
-0.00680542,15.10665775,0.696899414
-0.003585815,15.10085941,0.696075439
-0.002700806,15.09445072,0.695953369
-0.00328064,15.0946033,0.693847656
-0.004882813,15.08666873,0.693634033
-0.002456665,15.08132816,0.693908691
-9.16E-05,15.08193851,0.692810059
0.003799438,15.07430912,0.691253662
0.005752563,15.06988407,0.691375732
0.002151489,15.0694263,0.691497803
0.000137329,15.06454349,0.691345215
0.002655029,15.0569141,0.691162109
0.005187988,15.0581348,0.691314697
0.010238647,15.05493045,0.689971924
0.007919312,15.0442493,0.688903809
0.007766724,15.04409671,0.688751221
0.005874634,15.04333377,0.688995361
0.012237549,15.03265262,0.689086914
0.007781982,15.03372074,0.689025879
0.005203247,15.03250003,0.688934326
0.011550903,15.02120853,0.688934326
0.018096924,15.02151371,0.688842773
0.018218994,15.02090335,0.688812256
0.024536133,15.0140369,0.688568115
0.034545898,15.00930667,0.689361572
0.032699585,15.00945926,0.691101074
0.010162354,15.00656009,0.691223145
-0.002059937,14.99679447,0.691070557
-0.011810303,14.99618412,0.690979004
-0.011795044,14.99648929,0.693786621
-0.010513306,14.98657108,0.693603516
-0.009002686,14.98367191,0.695129395
-0.011611938,14.98321414,0.696014404
-0.011672974,14.98153568,0.697662354
-0.039428711,14.97161746,0.699188232
-0.045196533,14.9723804,0.700927734
0.078033447,14.97161746,0.703399658
0.336471558,14.9649036,0.705627441
0.6146698,14.95895267,0.707794189
0.387817383,14.95864749,0.710388184
-0.153549194,14.96032596,0.712860107
-0.396987915,14.94827152,0.716003418
-0.356231689,14.94766117,0.719146729
-0.200637817,14.94735599,0.722991943
-0.071105957,14.94628788,0.726776123
-0.006164551,14.93423343,0.731323242
0.013687134,14.93514896,0.735687256
0.023086548,14.93438602,0.740509033
0.028533936,14.93118167,0.745758057
0.0365448,14.92248416,0.751220703
0.037384033,14.92294193,0.756469727
0.037475586,14.92294193,0.762512207
0.041351318,14.91424442,0.7684021
0.046981812,14.91058231,0.774658203
0.050689697,14.91058231,0.780883789
0.061889648,14.9031055,0.78717041
0.067428589,14.89868045,0.793579102
0.08203125,14.89761234,0.800354004
0.094436646,14.8930347,0.807067871
0.108215332,14.88586307,0.814208984
0.122955322,14.88632083,0.821044922
0.139831543,14.88464237,0.828582764
0.142883301,14.87594486,0.83605957
0.13999939,14.87350345,0.84362793
0.113693237,14.87335086,0.851531982
0.059356689,14.87243534,0.858947754
-0.012664795,14.86144901,0.866607666
-0.08026123,14.86114383,0.87411499
-0.138656616,14.86083866,0.882202148
-0.172134399,14.86190677,0.88949585
-0.19241333,14.84847904,0.897216797
-0.190628052,14.84817386,0.90512085
-0.181137085,14.84985233,0.912689209
-0.164855957,14.84817386,0.920471191
-0.152740479,14.8439014,0.928131104
-0.135650635,14.83596683,0.936035156
-0.124023438,14.83825565,0.943939209
-0.108566284,14.83734012,0.951385498
-0.095077515,14.83734012,0.959350586
-0.082702637,14.83016849,0.966674805
-0.06703186,14.82574344,0.974731445
-0.05670166,14.82528568,0.981994629
-0.052581787,14.82421756,0.989257813
-0.040878296,14.82528568,0.997131348
-0.037200928,14.82147098,1.004699707
-0.030899048,14.81201053,1.011901855
-0.025726318,14.81262088,1.019805908
-0.020462036,14.81231571,1.027374268
-0.019882202,14.81262088,1.034820557
-0.013336182,14.81155277,1.042755127
-0.016525269,14.80117679,1.050628662
-0.018157959,14.79965091,1.058563232
-0.019287109,14.80056644,1.066711426
-0.016067505,14.8010242,1.074554443
-0.015411377,14.80026126,1.083007813
-0.010574341,14.79797245,1.091247559
-0.009628296,14.78759647,1.099029541
-0.008026123,14.78912235,1.107330322
-0.006378174,14.78881717,1.115722656
-0.005447388,14.7897327,1.123840332
-0.009231567,14.78805423,1.132049561
-0.006408691,14.7821033,1.140350342
-0.008209229,14.77752567,1.148651123
-0.003112793,14.7758472,1.15737915
-0.001174927,14.77615238,1.165100098
0.001235962,14.77615238,1.173583984
0.00062561,14.77767826,1.18157959
0.002960205,14.77096439,1.190002441
0.00567627,14.76425052,1.198638916
0.006378174,14.76486087,1.207244873
0.000137329,14.76409793,1.215789795
0.001831055,14.76287723,1.22442627
0.002120972,14.76394535,1.233612061
0.003234863,14.76241947,1.241943359
0.005355835,14.75173831,1.250549316
0.008712769,14.75250125,1.258789063
0.000259399,14.75173831,1.267486572
-0.001235962,14.75234867,1.275848389
0.00680542,14.75128055,1.28427124
0.013305664,14.75143314,1.292724609
0.013824463,14.74258304,1.300811768
0.019790649,14.73983646,1.308410645
0.033081055,14.73998905,1.316223145
0.037399292,14.73892093,1.32409668
0.017486572,14.73968387,1.331787109
0.001724243,14.73892093,1.339538574
-0.003845215,14.73831058,1.3465271
-0.002670288,14.72762943,1.353912354
-0.004623413,14.72854496,1.36050415
-0.001342773,14.72762943,1.367248535
-0.002365112,14.72656131,1.373565674
-0.001190186,14.72778202,1.379821777
-0.01399231,14.72625614,1.385192871
-0.0440979,14.7267139,1.390686035
0.014068604,14.71404911,1.39553833
0.23210144,14.71374393,1.399902344
0.535308838,14.71603275,1.403717041
0.603286743,14.71511722,1.407562256
0.084442139,14.71465946,1.410827637
-0.338577271,14.71359134,1.413085938
-0.399887085,14.71481204,1.415222168
-0.299224854,14.70962406,1.417022705
-0.163497925,14.70336795,1.418060303
-0.05078125,14.70352054,1.419403076
0.005691528,14.70382572,1.419616699
0.022628784,14.70291019,1.419677734
0.031402588,14.70245243,1.417297363
0.039077759,14.70245243,1.417114258
0.040328979,14.70260501,1.41494751
0.045211792,14.69512821,1.413269043
0.045150757,14.68994022,1.411071777
0.047225952,14.69055057,1.408172607
0.051025391,14.69055057,1.405090332
0.058441162,14.69085575,1.401824951
0.064437866,14.69024539,1.398529053
0.075119019,14.68948246,1.394683838
0.08215332,14.69024539,1.390869141
0.093902588,14.6914661,1.386657715
0.106674194,14.67956424,1.382324219
0.121261597,14.67819095,1.378051758
0.128768921,14.67742801,1.372955322
0.127563477,14.67773319,1.367645264
0.113479614,14.67849613,1.361663818
0.073806763,14.67803836,1.355438232
0.008712769,14.67788578,1.349060059
-0.060958862,14.67925907,1.342163086
-0.117767334,14.67864871,1.334899902
-0.156417847,14.6662891,1.327819824
-0.183502197,14.66705204,1.319854736
-0.184616089,14.66583133,1.312286377
-0.180831909,14.66598392,1.304016113
-0.171310425,14.66613651,1.295684814
-0.159713745,14.66415287,1.287475586
-0.143005371,14.66720462,1.278991699
-0.127410889,14.66659427,1.270080566
-0.111633301,14.66506839,1.261749268
-0.099609375,14.66583133,1.253173828
-0.083831787,14.66476322,1.244049072
-0.070510864,14.65270877,1.235412598
-0.058532715,14.65270877,1.226654053
-0.053756714,14.65301395,1.21786499
-0.045379639,14.65331913,1.209106445
-0.037887573,14.65331913,1.200958252
-0.031234741,14.65301395,1.192474365
-0.027328491,14.65225101,1.183502197
-0.020172119,14.65270877,1.175384521
-0.01991272,14.65316654,1.167114258
-0.015426636,14.65392948,1.159301758
-0.01361084,14.65316654,1.151550293
-0.015960693,14.65347171,1.143676758
-0.019241333,14.65408206,1.135894775
-0.01625061,14.65331913,1.128540039
-0.01574707,14.65286136,1.121429443
-0.014068604,14.65270877,1.114013672
-0.013717651,14.6536243,1.107116699
-0.007766724,14.6524036,1.100006104
-0.006408691,14.65331913,1.09274292
-0.001785278,14.6536243,1.086242676
-0.001693726,14.65438724,1.079711914
0.001678467,14.65331913,1.072601318
0.000595093,14.65286136,1.065246582
0.000808716,14.65347171,1.058532715
0.001785278,14.65316654,1.051116943
0.000610352,14.66613651,1.044403076
-0.001907349,14.66583133,1.036865234
0.001968384,14.66522098,1.029388428
0.002944946,14.66735721,1.022003174
0.003189087,14.66583133,1.014709473
0.001785278,14.66689945,1.006988525
0.00352478,14.67956424,0.999420166
0.002304077,14.67803836,0.991668701
0.00428772,14.67819095,0.983886719
0.001876831,14.67803836,0.975921631
0.002685547,14.69039798,0.968566895
0.001068115,14.68978763,0.960571289
0.008361816,14.68948246,0.952758789
0.007217407,14.70107913,0.945068359
0.002044678,14.70107913,0.937835693
0.002975464,14.70245243,0.929962158
0.011993408,14.71557498,0.923156738
0.015701294,14.71633792,0.915710449
0.016738892,14.72228885,0.908538818
0.02456665,14.72732425,0.902099609
0.028442383,14.73113895,0.895202637
0.012466431,14.73815799,0.888763428
-0.001617432,14.74212528,0.882629395
-0.013183594,14.75051761,0.876373291
-0.012084961,14.75753665,0.870513916
-0.012969971,14.76333499,0.864898682
-0.010803223,14.77172733,0.858947754
-0.008407593,14.77691532,0.853790283
-0.004165649,14.78881717,0.848815918
-0.024490356,14.79568363,0.843688965
-0.05619812,14.80087162,0.839050293
0.019561768,14.81262088,0.834075928
0.24105835,14.81765628,0.829559326
0.545715332,14.82772708,0.825531006
0.552581787,14.83672977,0.82144165
0.028060913,14.84664798,0.817443848
-0.351028442,14.85641361,0.813079834
-0.388580322,14.86816288,0.809570313
-0.254486084,14.87930179,0.806213379
-0.113739014,14.88967777,0.802886963
-0.021713257,14.9006641,0.800170898
0.00920105,14.91180301,0.796936035
0.021606445,14.92355228,0.794189453
0.024276733,14.93514896,0.791778564
0.029342651,14.94842411,0.789520264
0.031341553,14.95864749,0.787384033
0.036499023,14.969939,0.784851074
0.038848877,14.98092533,0.783081055
0.042419434,14.99343753,0.781677246
0.043670654,15.00411869,0.780059814
0.05166626,15.01617313,0.777770996
0.06060791,15.02700687,0.777038574
0.074508667,15.0379932,0.774749756
0.083404541,15.04867435,0.774261475
0.0962677,15.06103397,0.77243042
0.108398438,15.07125736,0.772583008
0.124206543,15.08224369,0.771697998
0.132919312,15.09490848,0.769866943
0.131393433,15.10589481,0.770050049
0.111709595,15.1161182,0.769989014
0.068786621,15.12771488,0.768585205
0.001358032,15.13915897,0.768005371
-0.070495605,15.15075565,0.767883301
-0.130554199,15.16296268,0.765563965
-0.17175293,15.17440677,0.765167236
-0.189849854,15.18554569,0.763763428
-0.192520142,15.19714237,0.762664795
-0.187194824,15.2105701,0.761077881
-0.172683716,15.22216678,0.760131836
-0.155593872,15.23437381,0.757751465
-0.140487671,15.24398685,0.756744385
-0.12701416,15.25512577,0.755157471
-0.106719971,15.26656986,0.753540039
-0.091995239,15.27831913,0.752532959
-0.07711792,15.29006839,0.750152588
-0.067001343,15.30090213,0.749023438
-0.058517456,15.30929447,0.747802734
-0.053359985,15.31860233,0.745422363
-0.04083252,15.32684207,0.744628906
-0.041671753,15.33935428,0.742767334
-0.03855896,15.34805179,0.741607666
-0.036209106,15.35705448,0.740753174
-0.027114868,15.36422611,0.738677979
-0.023849487,15.37719608,0.73815918
-0.021316528,15.38329959,0.736938477
-0.022476196,15.38879276,0.735900879
-0.024581909,15.40054203,0.735046387
-0.022949219,15.40786624,0.733154297
-0.017730713,15.41244388,0.73324585
-0.024581909,15.42526126,0.732299805
-0.023666382,15.42892337,0.730682373
-0.019439697,15.43731571,0.730682373
-0.015457153,15.44387699,0.730560303
-0.014007568,15.44906497,0.728912354
-0.012313843,15.4588306,0.728363037
-0.014862061,15.46142459,0.728210449
-0.012542725,15.47424198,0.728302002
-0.009460449,15.47592044,0.728149414
-0.00843811,15.48690677,0.728027344
-0.009475708,15.48965335,0.728179932
-0.007659912,15.49865604,0.725799561
-0.007369995,15.50308109,0.72567749
-0.004928589,15.51101566,0.725585938
-0.004699707,15.516814,0.725524902
-0.002426147,15.52352787,0.725921631
-0.000976563,15.52581668,0.72567749
0.00189209,15.53481937,0.725860596
0.001495361,15.53542972,0.725860596
0.003295898,15.54641605,0.725769043
0.002593994,15.54733158,0.725860596
0.003234863,15.54962039,0.725738525
0.001983643,15.55999637,0.725616455
0.003601074,15.55816532,0.725738525
0.005187988,15.55953861,0.725769043
0.007339478,15.56930423,0.72567749
0.007293701,15.57205081,0.725830078
0.008850098,15.57327152,0.725769043
0.00894165,15.57250858,0.725616455
0.009613037,15.57800174,0.725646973
0.013595581,15.58349491,0.72555542
0.014022827,15.58395267,0.725616455
0.009262085,15.58395267,0.725646973
0.009857178,15.58471561,0.725646973
0.010482788,15.58364749,0.725616455
0.004486084,15.58410526,0.725799561
0.005630493,15.58395267,0.72567749
0.014694214,15.58593631,0.725738525
0.016555786,15.59661746,0.72644043
0.019683838,15.5961597,0.728118896
0.026351929,15.59707523,0.728271484
0.033752441,15.59600711,0.728179932
0.019317627,15.59631229,0.728210449
-0.00012207,15.5961597,0.728027344
-0.008789063,15.59661746,0.728088379
-0.010498047,15.59585453,0.72845459
-0.01612854,15.59570194,0.728546143
-0.016372681,15.59661746,0.730651855
-0.017532349,15.59661746,0.730529785
-0.013549805,15.59677005,0.730621338
-0.025421143,15.5961597,0.732849121
-0.059692383,15.59570194,0.732971191
-0.008911133,15.59799076,0.734649658
0.184951782,15.59646488,0.735565186
0.489181519,15.59631229,0.737640381
0.598754883,15.59570194,0.738739014
0.115249634,15.58563114,0.740356445
-0.316329956,15.58364749,0.742370605
-0.401687622,15.58380008,0.744140625
-0.291824341,15.58318973,0.745910645
-0.145126343,15.58380008,0.748321533
-0.04045105,15.58532596,0.750701904
0.001235962,15.58380008,0.753631592
0.017044067,15.5822742,0.756286621
0.021697998,15.57296634,0.75881958
0.02671814,15.57296634,0.762145996
0.027160645,15.57266117,0.76574707
0.032287598,15.57235599,0.769104004
0.042556763,15.57235599,0.773193359
0.048370361,15.56503177,0.777038574
0.048858643,15.55938602,0.78137207
0.055786133,15.56045413,0.785980225
0.062240601,15.56030155,0.791107178
0.073516846,15.55862308,0.795806885
0.086624146,15.54748416,0.801269531
0.102905273,15.5482471,0.806518555
0.111358643,15.54794193,0.812072754
0.120559692,15.54046512,0.81729126
0.129974365,15.53481937,0.823669434
0.136642456,15.53466678,0.829833984
0.124404907,15.52673221,0.835998535
0.093215942,15.52230716,0.842407227
0.036407471,15.5218494,0.848937988
-0.033798218,15.51116825,0.855316162
-0.098434448,15.50979496,0.861572266
-0.146057129,15.50399662,0.868225098
-0.178894043,15.4991138,0.874969482
-0.188568115,15.49682498,0.881958008
-0.186843872,15.48644901,0.888671875
-0.173309326,15.48553348,0.895233154
-0.160263062,15.47988773,0.902435303
-0.143508911,15.47500492,0.909881592
-0.130844116,15.47363163,0.917053223
-0.119232178,15.46569705,0.924041748
-0.108047485,15.46234012,0.931335449
-0.092666626,15.46127201,0.93862915
-0.081634521,15.45013309,0.946044922
-0.067886353,15.4499805,0.953521729
-0.062347412,15.44708133,0.960784912
-0.059692383,15.43792606,0.968292236
-0.050750732,15.43716312,0.976135254
-0.040328979,15.43075443,0.983428955
-0.034606934,15.42541385,0.990478516
-0.027908325,15.42495609,0.998718262
-0.025360107,15.41503788,1.006439209
-0.023010254,15.41168094,1.014160156
-0.024993896,15.41030765,1.022125244
-0.02015686,15.39901615,1.029937744
-0.02166748,15.40099979,1.038024902
-0.020462036,15.39138675,1.046295166
-0.016052246,15.38818241,1.054473877
-0.013320923,15.38497806,1.06262207
-0.012649536,15.37582279,1.070953369
-0.010009766,15.37643314,1.079284668
-0.007888794,15.36651493,1.087799072
-0.003082275,15.36285282,1.095947266
-0.002716064,15.36071659,1.104278564
-0.002243042,15.35140872,1.112792969
0.000671387,15.35156131,1.120880127
0.003814697,15.34133792,1.129547119
0.002716064,15.33843875,1.137939453
0.00743103,15.33431888,1.146057129
0.006332397,15.32684207,1.154602051
0.010009766,15.32684207,1.162597656
0.011352539,15.31509281,1.170593262
0.009460449,15.31402469,1.178588867
0.006713867,15.30990482,1.186798096
0.008880615,15.3025806,1.194732666
0.011291504,15.30197025,1.202911377
0.017837524,15.29266239,1.21105957
0.015213013,15.29052616,1.219238281
0.013397217,15.2874744,1.227508545
0.013442993,15.27770877,1.235778809
0.016265869,15.27725101,1.243804932
0.009918213,15.26992679,1.252227783
0.008865356,15.26611209,1.260192871
0.013442993,15.26565433,1.268310547
0.015716553,15.25359989,1.276245117
0.021240234,15.25359989,1.283966064
0.03137207,15.2484119,1.291564941
0.039428711,15.24139286,1.299194336
0.032226563,15.23986698,1.306427002
0.01121521,15.22888065,1.314117432
-0.000350952,15.2282703,1.320739746
-0.006759644,15.21621585,1.327880859
-0.00869751,15.21591068,1.334350586
-0.010574341,15.20629764,1.340667725
-0.010986328,15.20416141,1.346710205
-0.012481689,15.19851566,1.352539063
-0.013275146,15.19103885,1.357910156
-0.044937134,15.18905521,1.362823486
-0.033203125,15.179137,1.367492676
0.127029419,15.17974735,1.371765137
0.415237427,15.17104984,1.375610352
0.651168823,15.16586185,1.378967285
0.305679321,15.16616703,1.381500244
-0.234283447,15.15502811,1.383239746
-0.410690308,15.15548587,1.384887695
-0.349746704,15.151366,1.387207031
-0.216201782,15.14236331,1.387756348
-0.092895508,15.1425159,1.387481689
-0.014511108,15.14037967,1.387756348
0.010864258,15.13091922,1.387756348
0.02293396,15.13107181,1.387573242
0.027282715,15.12756229,1.386657715
0.034118652,15.11825443,1.385284424
0.039993286,15.1185596,1.383270264
0.043792725,15.11794925,1.381500244
0.047424316,15.10558963,1.379302979
0.056030273,15.10589481,1.37689209
0.058227539,15.10711551,1.373901367
0.064620972,15.09521366,1.371246338
0.069992065,15.0933826,1.367858887
0.080810547,15.0933826,1.364440918
0.094039917,15.0871265,1.361083984
0.106735229,15.08041263,1.356719971
0.118591309,15.08071781,1.352752686
0.132217407,15.08041263,1.347991943
0.135742188,15.06988407,1.342803955
0.131164551,15.06912113,1.337585449
0.100738525,15.06973148,1.331512451
0.048934937,15.06332279,1.325378418
-0.02305603,15.05615116,1.318725586
-0.087615967,15.05767704,1.311859131
-0.137649536,15.05798221,1.304840088
-0.166870117,15.04684329,1.297393799
-0.17930603,15.04470706,1.289672852
-0.180557251,15.04440189,1.281524658
-0.173980713,15.04348636,1.273620605
-0.156799316,15.03311038,1.265808105
-0.138885498,15.03219486,1.25769043
-0.12713623,15.03387332,1.249420166
-0.11668396,15.0291431,1.240936279
-0.100128174,15.02059818,1.232299805
-0.088424683,15.01998783,1.22442627
-0.074996948,15.02120853,1.215759277
-0.063980103,15.01357913,1.207427979
-0.053497314,15.00930667,1.199188232
-0.049835205,15.00884891,1.191467285
-0.044754028,15.00976444,1.183227539
-0.044235229,15.0001514,1.17565918
-0.038864136,14.99648929,1.167694092
-0.035888672,14.99648929,1.160400391
-0.032943726,14.99603153,1.152679443
-0.030410767,14.98687625,1.145385742
-0.029006958,14.98290897,1.137908936
-0.027694702,14.98351932,1.131256104
-0.025405884,14.98306156,1.124359131
-0.024337769,14.97695804,1.117462158
-0.020050049,14.9711597,1.110839844
-0.019500732,14.97207523,1.104370117
-0.017745972,14.97222782,1.097869873
-0.017074585,14.96658206,1.09185791
-0.014877319,14.95849491,1.085205078
-0.00944519,14.95910526,1.07901001
-0.007400513,14.95925785,1.073181152
-0.007415771,14.95849491,1.066497803
-0.004226685,14.94857669,1.060272217
-0.004638672,14.94705081,1.053436279
0.000823975,14.9472034,1.047424316
-0.000442505,14.94705081,1.040893555
0.000839233,14.94125247,1.034179688
0.001907349,14.93530155,1.027587891
0.001907349,14.93499637,1.020904541
0.000152588,14.93575931,1.014038086
0.00213623,14.93560672,1.007263184
0.000762939,14.92355228,0.999938965
0.003356934,14.92294193,0.992858887
0.00213623,14.92339969,0.986083984
0.004196167,14.92233158,0.978759766
0.004653931,14.91180301,0.971405029
0.007980347,14.91088748,0.964355469
0.007843018,14.91149784,0.957000732
0.004699707,14.90661502,0.949859619
0.006744385,14.8980701,0.942504883
0.01776123,14.89822269,0.93536377
0.017730713,14.89913822,0.928466797
0.019134521,14.89105106,0.921661377
0.029968262,14.88632083,0.91506958
0.032394409,14.88662601,0.908203125
0.014907837,14.88616825,0.901824951
-0.00138855,14.88052249,0.895385742
-0.012481689,14.87335086,0.889556885
-0.012130737,14.87457157,0.883239746
-0.011581421,14.87365604,0.877838135
-0.010879517,14.87335086,0.871307373
-0.011383057,14.86877323,0.866577148
-0.011932373,14.86099124,0.861022949
-0.041107178,14.86144901,0.856018066
-0.052398682,14.86068607,0.851318359
0.060058594,14.8602283,0.846923828
0.306488037,14.8616016,0.843078613
0.595779419,14.85168338,0.838928223
0.444702148,14.84832645,0.835266113
-0.105895996,14.84924198,0.831695557
-0.399002075,14.84954715,0.828277588
-0.376052856,14.84954715,0.825134277
-0.221389771,14.8477161,0.822418213
-0.085540771,14.83749271,0.819854736
-0.012420654,14.83718753,0.81729126
0.011856079,14.83657718,0.814910889
0.024475098,14.83657718,0.812561035
0.029403687,14.83672977,0.81036377
0.037124634,14.83230472,0.808380127
0.036331177,14.82437015,0.806640625
0.038879395,14.82467533,0.804656982
0.041183472,14.8249805,0.802398682
0.048400879,14.82513309,0.80065918
0.053039551,14.82482791,0.79876709
0.059829712,14.81780887,0.797027588
0.061889648,14.81246829,0.795013428
0.071502686,14.81307865,0.793762207
0.081512451,14.81231571,0.792114258
0.096252441,14.81262088,0.791137695
0.106918335,14.81338382,0.789764404
0.121520996,14.80773807,0.788238525
0.125900269,14.7998035,0.787567139
0.126174927,14.80056644,0.785736084
0.104568481,14.80071903,0.784881592
0.057312012,14.80132938,0.783081055
-0.010269165,14.80026126,0.782226563
-0.078796387,14.79934574,0.779754639
-0.135009766,14.79186893,0.778839111
-0.167190552,14.78744388,0.777374268
-0.182159424,14.78820682,0.774993896
-0.184494019,14.78866458,0.773681641
-0.17805481,14.78912235,0.772094727
-0.161102295,14.788512,0.770080566
-0.147323608,14.78866458,0.768188477
-0.130813599,14.77630496,0.766204834
-0.112976074,14.7758472,0.76461792
-0.096969604,14.77477909,0.762481689
-0.084747314,14.77645755,0.760437012
-0.073104858,14.77661014,0.75894165
-0.063430786,14.77722049,0.757537842
-0.051071167,14.77187992,0.755340576
-0.044891357,14.76409793,0.753540039
-0.039260864,14.76394535,0.752227783
-0.036224365,14.76364017,0.750335693
-0.026977539,14.76379276,0.748260498
-0.025009155,14.76333499,0.747589111
-0.022689819,14.76516605,0.745422363
-0.021606445,14.75585819,0.744445801
-0.020324707,14.75097538,0.742980957
-0.019424438,14.75112796,0.741394043
-0.015029907,14.75280643,0.740661621
-0.01399231,14.75204349,0.739196777
-0.011474609,14.75158573,0.738006592
-0.012359619,14.75143314,0.73727417
-0.009628296,14.75128055,0.735534668
-0.008544922,14.73876834,0.735778809
-0.007110596,14.73907352,0.734283447
-0.008560181,14.73815799,0.733154297
-0.007171631,14.73815799,0.733306885
-0.006240845,14.73922611,0.732635498
-0.006881714,14.73922611,0.730712891
-0.009796143,14.73922611,0.730438232
-0.007675171,14.73968387,0.73059082
-0.006210327,14.72900272,0.730621338
-0.003051758,14.72717166,0.729400635
-0.002182007,14.72762943,0.728149414
-0.000732422,14.72808719,0.728179932
-0.003158569,14.72732425,0.728240967
0.001403809,14.72839237,0.728149414
0.000320435,14.72732425,0.72833252
-0.002120972,14.72625614,0.728088379
-0.0025177,14.71481204,0.728210449
0.000686646,14.71374393,0.728118896
0.002990723,14.71435428,0.728179932
0.005950928,14.71374393,0.727905273
0.005310059,14.71481204,0.728149414
0.000534058,14.71496463,0.728179932
-0.005447388,14.71633792,0.728271484
0.008041382,14.71618534,0.728118896
0.013778687,14.70229984,0.728149414
0.019088745,14.70199466,0.728240967
0.02180481,14.70229984,0.729949951
0.031219482,14.70229984,0.730499268
0.02532959,14.70229984,0.730773926
0.011642456,14.70321537,0.732849121
-0.001464844,14.70291019,0.733184814
-0.004943848,14.70336795,0.735443115
-0.008514404,14.69207645,0.736114502
-0.007705688,14.6888721,0.737792969
-0.005065918,14.68978763,0.740234375
-0.007019043,14.69055057,0.742370605
-0.016708374,14.69039798,0.744689941
-0.050094604,14.69024539,0.747253418
-0.029006958,14.69024539,0.750762939
0.133895874,14.6914661,0.753967285
0.417984009,14.68215824,0.757720947
0.636810303,14.67788578,0.761627197
0.256698608,14.6775806,0.766326904
-0.250534058,14.67773319,0.770294189
-0.408401489,14.67834354,0.775054932
-0.325286865,14.67849613,0.780181885
-0.176895142,14.67803836,0.785400391
-0.058609009,14.67803836,0.791320801
-0.004394531,14.6775806,0.796447754
0.016067505,14.66812015,0.802337646
0.025970459,14.66613651,0.80871582
0.033432007,14.66705204,0.814941406
0.034042358,14.66766239,0.821472168
0.039337158,14.66537357,0.828430176
0.044113159,14.66598392,0.835632324
0.047912598,14.66583133,0.842529297
0.05279541,14.6662891,0.850189209
0.059585571,14.66674686,0.857696533
0.06539917,14.66583133,0.865234375
0.074935913,14.65621829,0.87322998
0.083404541,14.65316654,0.881134033
0.098022461,14.6536243,0.889129639
0.107620239,14.65301395,0.897277832
0.121643066,14.65377689,0.905578613
0.13180542,14.6536243,0.9140625
0.137008667,14.6524036,0.922454834
0.130752563,14.65377689,0.93057251
0.106460571,14.65301395,0.938568115
0.049713135,14.65438724,0.946685791
-0.021347046,14.64523197,0.95489502
-0.091644287,14.64095951,0.962677002
-0.138656616,14.64111209,0.97064209
-0.171035767,14.64080692,0.978271484
-0.181213379,14.64080692,0.985656738
-0.180557251,14.64218021,0.993255615
-0.171173096,14.64095951,1.000732422
-0.16104126,14.64218021,1.007965088
-0.146835327,14.64141727,1.015319824
-0.131942749,14.64080692,1.023010254
-0.117462158,14.63989139,1.030303955
-0.099884033,14.63027835,1.038024902
-0.087982178,14.629668,1.045562744
-0.078674316,14.62905765,1.053314209
-0.063095093,14.62798954,1.06149292
-0.062927246,14.62997318,1.069213867
-0.052154541,14.62982059,1.077392578
-0.039276123,14.62905765,1.085662842
-0.037628174,14.6284473,1.093811035
-0.034973145,14.62783695,1.102203369
-0.028335571,14.62859989,1.11038208
-0.027542114,14.62448001,1.118804932
-0.02180481,14.61532474,1.127380371
-0.021591187,14.6157825,1.13571167
-0.020721436,14.61608768,1.144317627
-0.018356323,14.61685062,1.152862549
-0.016494751,14.61685062,1.160827637
-0.018585205,14.61624027,1.169158936
-0.01550293,14.61669803,1.177490234
-0.012023926,14.61608768,1.185638428
-0.011520386,14.61547733,1.193786621
-0.012802124,14.61700321,1.202362061
-0.006759644,14.61730838,1.210784912
-0.004135132,14.61089969,1.219116211
-0.002120972,14.60540653,1.227600098
0.000320435,14.60464359,1.235961914
-0.000839233,14.60433841,1.244262695
-0.003295898,14.60464359,1.2527771
0.002044678,14.60479618,1.261016846
0.000869751,14.60494876,1.268981934
0.002639771,14.60296512,1.277435303
0.002288818,14.59152103,1.285247803
0.002212524,14.59228397,1.293334961
0.002838135,14.59121585,1.300811768
0.001068115,14.59182621,1.308349609
-0.000595093,14.59243656,1.316314697
0.008651733,14.59152103,1.323944092
0.007003784,14.59152103,1.331268311
0.014022827,14.58328128,1.338256836
0.026138306,14.57946659,1.345733643
0.033843994,14.58022953,1.353057861
0.016647339,14.58038211,1.360015869
0.000656128,14.57992435,1.367095947
-0.009490967,14.57992435,1.374237061
-0.008361816,14.57946659,1.380889893
-0.006942749,14.58007694,1.387542725
-0.006286621,14.5805347,1.393981934
-0.006515503,14.57977176,1.400024414
-0.006790161,14.57992435,1.405975342
-0.022079468,14.57687259,1.411712646
-0.049865723,14.56771732,1.416931152
0.012268066,14.56832767,1.421966553
0.235229492,14.56710697,1.426483154
0.536880493,14.56741214,1.430755615
0.603729248,14.56710697,1.43460083
0.076431274,14.56725955,1.437896729
-0.345031738,14.56786991,1.440551758
-0.403213501,14.56771732,1.442962646
-0.298858643,14.56848026,1.444854736
-0.164260864,14.56771732,1.44644165
-0.049545288,14.56771732,1.446685791
0.007049561,14.56680179,1.448913574
0.023513794,14.56771732,1.449310303
0.032073975,14.5654285,1.44720459
0.038589478,14.5553577,1.446655273
0.040008545,14.55596805,1.445343018
0.043899536,14.55551029,1.443695068
0.046173096,14.55520511,1.441131592
0.050323486,14.55551029,1.438232422
0.055053711,14.55459476,1.435577393
0.063323975,14.55505252,1.43258667
0.065689087,14.55474735,1.428619385
0.077316284,14.554137,1.424835205
0.085144043,14.5553577,1.42074585
0.099121094,14.55489994,1.416229248
0.110595703,14.55444217,1.411651611
0.125961304,14.55459476,1.407470703
0.131240845,14.55612064,1.402160645
0.130645752,14.5465076,1.397491455
0.114959717,14.54284549,1.391845703
0.073791504,14.54284549,1.386108398
0.010604858,14.5426929,1.380554199
-0.054611206,14.54192996,1.374267578
-0.11541748,14.54315067,1.367553711
-0.155471802,14.54208255,1.360839844
-0.1771698,14.54360843,1.353973389
-0.178771973,14.54330326,1.346618652
-0.173965454,14.54254032,1.339385986
-0.160827637,14.54254032,1.331604004
-0.146865845,14.54299808,1.32434082
-0.130249023,14.54299808,1.316314697
-0.118179321,14.54315067,1.30859375
-0.102615356,14.54360843,1.300567627
-0.091064453,14.53353763,1.292907715
-0.07598877,14.53033329,1.285186768
-0.07019043,14.52987552,1.277587891
-0.061721802,14.53002811,1.269744873
-0.052612305,14.53079105,1.262237549
-0.046142578,14.53033329,1.254486084
-0.042861938,14.53063846,1.247528076
-0.034744263,14.53048587,1.240112305
-0.030563354,14.53063846,1.233306885
-0.026031494,14.53094364,1.226074219
-0.02444458,14.53063846,1.218933105
-0.022857666,14.52972293,1.212371826
-0.023269653,14.51843143,1.205566406
-0.021484375,14.51797367,1.198791504
-0.021392822,14.51812625,1.192443848
-0.019210815,14.51873661,1.186248779
-0.020172119,14.51949954,1.179656982
-0.017593384,14.51858402,1.17376709
-0.017608643,14.51858402,1.167297363
-0.015670776,14.51766849,1.161529541
-0.014648438,14.51873661,1.155029297
-0.008468628,14.51782108,1.149139404
-0.010101318,14.51797367,1.143554688
-0.005813599,14.51873661,1.137237549
-0.003738403,14.51858402,1.131469727
-0.004013062,14.51049686,1.12600708
-0.002670288,14.50790287,1.12020874
0.001235962,14.50713993,1.114929199
-0.000183105,14.50652957,1.10925293
0.003356934,14.50775028,1.1043396
0.005386353,14.50759769,1.099182129
0.007797241,14.50607181,1.094024658
0.005065918,14.50698734,1.088806152
0.007049561,14.50652957,1.08416748
0.005340576,14.50668216,1.078979492
0.005096436,14.50637699,1.074127197
0.010192871,14.50561405,1.069000244
0.015762329,14.50652957,1.063690186
0.015106201,14.50729251,1.05871582
0.023651123,14.50683475,1.053100586
0.034072876,14.50591922,1.047637939
0.029998779,14.5062244,1.041595459
0.010818481,14.49325443,1.035888672
-0.003692627,14.49432254,1.029510498
-0.010543823,14.4935596,1.02355957
-0.009124756,14.49508548,1.017486572
-0.010864258,14.4935596,1.010864258
-0.008834839,14.49371219,1.004608154
-0.007720947,14.49523807,0.997924805
-0.017242432,14.49340702,0.991119385
-0.052017212,14.49416996,0.984558105
0.002166748,14.49508548,0.97756958
0.200119019,14.49447513,0.970947266
0.499526978,14.49493289,0.964813232
0.592926025,14.49386478,0.957275391
0.106994629,14.49050785,0.950744629
-0.335708618,14.4822681,0.943756104
-0.408355713,14.48181034,0.937133789
-0.284118652,14.48058963,0.930450439
-0.129394531,14.48058963,0.924072266
-0.03086853,14.48242069,0.917724609
0.004562378,14.48242069,0.91104126
0.017242432,14.48272586,0.904754639
0.025115967,14.48196292,0.898468018
0.028594971,14.48287845,0.89251709
0.033462524,14.48242069,0.886291504
0.034194946,14.48272586,0.880706787
0.038726807,14.48287845,0.874633789
0.042068481,14.48242069,0.869384766
0.049911499,14.48211551,0.864074707
0.052520752,14.47784305,0.858642578
0.060119629,14.46945072,0.853302002
0.071456909,14.46945072,0.848724365
0.086364746,14.46945072,0.84387207
0.099685669,14.47067142,0.839569092
0.113128662,14.46884037,0.835083008
0.120880127,14.46899295,0.830780029
0.12727356,14.46899295,0.826446533
0.127838135,14.46929813,0.822875977
0.121337891,14.46945072,0.818847656
0.08039856,14.46929813,0.815246582
0.015472412,14.46853519,0.811309814
-0.054580688,14.4683826,0.808349609
-0.114334106,14.46945072,0.804504395
-0.155319214,14.4683826,0.801147461
-0.175521851,14.46151615,0.798095703
-0.182891846,14.45770145,0.795013428
-0.177444458,14.45693851,0.791870117
-0.168304443,14.45785404,0.789001465
-0.151260376,14.45663333,0.785949707
-0.135223389,14.45785404,0.783325195
-0.120330811,14.4583118,0.780639648
-0.107574463,14.45739627,0.778015137
-0.091995239,14.45770145,0.775177002
-0.081085205,14.45815921,0.772735596
-0.06867981,14.45754886,0.769836426
-0.061935425,14.45724369,0.76763916
-0.052444458,14.45800663,0.764984131
-0.045562744,14.45678592,0.762329102
-0.039154053,14.45937992,0.760467529
-0.034500122,14.4570911,0.758239746
-0.0284729,14.45724369,0.756469727
-0.025024414,14.44961429,0.7550354
-0.019012451,14.44488407,0.753143311
-0.023635864,14.44457889,0.751342773
-0.019927979,14.44488407,0.750152588
-0.017715454,14.44595218,0.748565674
-0.016601563,14.44473148,0.747741699
-0.01776123,14.44427371,0.746276855
-0.019012451,14.44473148,0.745269775
-0.018981934,14.44427371,0.745422363
-0.014343262,14.44457889,0.743347168
-0.014068604,14.4444263,0.742950439
-0.011062622,14.44595218,0.74307251
-0.009872437,14.44518924,0.742797852
-0.007644653,14.44366336,0.740356445
-0.004592896,14.44167972,0.740478516
0.001403809,14.43374515,0.740325928
-0.001525879,14.43389774,0.740509033
-0.004211426,14.43267704,0.740600586
-0.000152588,14.43359256,0.740356445
0.005691528,14.43328739,0.740325928
0.002502441,14.43359256,0.740539551
0.004684448,14.43343997,0.740386963
0.005462646,14.43298221,0.740600586
0.007202148,14.43206668,0.740570068
0.00869751,14.43343997,0.740600586
0.012207031,14.43359256,0.740539551
0.00958252,14.43298221,0.740509033
